-25.159870007338426,37.73980501100764,37.73980501100764,nan,nan,nan,nan,nan,25.159870007338426,25.159870007338426,nan,nan
-25.159870007338426,37.73980501100764,37.73980501100764,-12.579935003669213,12.579935003669213,nan,nan,-37.73980501100764,25.159870007338426,25.159870007338426,nan,nan
-25.159870007338426,34.594821260090335,37.73980501100764,-12.579935003669213,12.579935003669213,nan,339.6582450990688,-37.73980501100764,25.159870007338426,25.159870007338426,nan,nan
-25.159870007338426,31.449837509173033,37.73980501100764,-25.159870007338426,12.579935003669213,nan,12.579935003669213,-50.31974001467685,25.159870007338426,25.159870007338426,-0.0,-0.0
-25.159870007338426,28.30485375825573,37.73980501100764,-25.159870007338426,25.159870007338426,-0.0,12.579935003669213,-50.31974001467685,25.159870007338426,20.12789600587067,-0.0,-0.0
-25.159870007338426,25.159870007338426,37.73980501100764,-25.159870007338426,25.159870007338426,-0.0,12.579935003669213,-50.31974001467685,25.159870007338426,15.095922004403091,-0.0,-0.0
-25.159870007338426,25.159870007338426,37.73980501100764,-25.159870007338426,25.159870007338426,-0.0,18.86990250550382,-50.31974001467685,25.159870007338426,10.063948002935335,-0.0,-0.0
-25.159870007338426,25.159870007338426,37.73980501100764,-25.159870007338426,25.159870007338426,-0.0,25.159870007338426,-50.31974001467685,12.579935003669213,5.0319740014677565,-0.0,-0.0
-25.159870007338426,25.159870007338426,37.73980501100764,-12.579935003669213,25.159870007338426,-0.0,31.449837509173033,-50.31974001467685,-0.0,-0.0,-0.0,-0.0
-25.159870007338426,25.159870007338426,37.73980501100764,-12.579935003669213,25.159870007338426,-0.0,37.73980501100764,-50.31974001467685,-0.0,-0.0,-0.0,-0.0
-12.579935003669213,25.159870007338426,37.73980501100764,-12.579935003669213,12.579935003669213,-0.0,37.73980501100764,-37.73980501100764,-0.0,-0.0,-0.0,-0.0
-12.579935003669213,25.159870007338426,37.73980501100764,-12.579935003669213,-0.0,-12.579935003669213,37.73980501100764,-37.73980501100764,-0.0,-0.0,-0.0,-0.0
-12.579935003669213,25.159870007338426,37.73980501100764,-12.579935003669213,12.579935003669213,-12.579935003669213,37.73980501100764,-12.579935003669213,-0.0,-0.0,-0.0,-0.0
-12.579935003669213,25.159870007338426,37.73980501100764,-12.579935003669213,12.579935003669213,-0.0,37.73980501100764,-402.5579201174148,-0.0,-0.0,-0.0,-0.0
-12.579935003669213,12.579935003669213,37.73980501100764,-12.579935003669213,12.579935003669213,12.579935003669213,37.73980501100764,-402.5579201174148,-0.0,-0.0,-0.0,-0.0
-12.579935003669213,-0.0,37.73980501100764,-0.0,12.579935003669213,12.579935003669213,37.73980501100764,-415.13785512108404,12.579935003669213,-0.0,-0.0,-0.0
-12.579935003669213,-0.0,37.73980501100764,-0.0,12.579935003669213,12.579935003669213,25.159870007338426,-402.5579201174148,50.31974001467685,-0.0,-0.0,-0.0
-12.579935003669213,12.579935003669213,37.73980501100764,-0.0,25.159870007338426,12.579935003669213,25.159870007338426,-402.5579201174148,-402.5579201174148,-0.0,-0.0,-0.0
-12.579935003669213,12.579935003669213,37.73980501100764,-0.0,25.159870007338426,-0.0,25.159870007338426,-125.79935003669213,-402.5579201174148,-0.0,-0.0,-0.0
-12.579935003669213,12.579935003669213,37.73980501100764,-0.0,25.159870007338426,-12.579935003669213,25.159870007338426,-779.9559702274912,-415.13785512108404,-0.0,-0.0,-0.0
-12.579935003669213,12.579935003669213,37.73980501100764,-0.0,25.159870007338426,-12.579935003669213,25.159870007338426,-1698.2912254953437,-402.5579201174148,-0.0,-0.0,-0.0
-0.0,12.579935003669213,25.159870007338426,-0.0,12.579935003669213,-12.579935003669213,25.159870007338426,-603.8368801761222,-402.5579201174148,-0.0,-0.0,-0.0
-12.579935003669213,12.579935003669213,25.159870007338426,-0.0,12.579935003669213,-12.579935003669213,25.159870007338426,-603.8368801761222,-201.2789600587074,-0.0,-0.0,-0.0
-25.159870007338426,-0.0,25.159870007338426,-0.0,12.579935003669213,-12.579935003669213,25.159870007338426,-591.256945172453,-842.8556452458373,-0.0,-0.0,-0.0
-25.159870007338426,-0.0,25.159870007338426,-12.579935003669213,12.579935003669213,-0.0,12.579935003669213,-566.0970751651146,-591.256945172453,-0.0,-0.0,-0.0
-25.159870007338426,-0.0,25.159870007338426,-12.579935003669213,12.579935003669213,-0.0,12.579935003669213,-553.5171401614454,-603.8368801761222,-0.0,-0.0,-0.0
-25.159870007338426,-0.0,12.579935003669213,-12.579935003669213,12.579935003669213,-0.0,12.579935003669213,-415.13785512108404,-603.8368801761222,-0.0,-0.0,-0.0
-12.579935003669213,-0.0,-0.0,-12.579935003669213,12.579935003669213,12.579935003669213,12.579935003669213,-352.23818010273794,-603.8368801761222,-0.0,-0.0,-0.0
-12.579935003669213,-0.0,12.579935003669213,-0.0,12.579935003669213,12.579935003669213,12.579935003669213,-176.11909005136897,-603.8368801761222,-0.0,-0.0,-0.0
-12.579935003669213,-0.0,25.159870007338426,-0.0,12.579935003669213,12.579935003669213,12.579935003669213,-88.05954502568449,-503.19740014676853,-0.0,-0.0,-0.0
-12.579935003669213,-0.0,25.159870007338426,-0.0,12.579935003669213,-0.0,12.579935003669213,-12.579935003669213,-213.85889506237663,-0.0,12.579935003669213,-0.0
-12.579935003669213,-0.0,25.159870007338426,-0.0,12.579935003669213,-0.0,12.579935003669213,25.159870007338426,-12.579935003669213,-0.0,12.579935003669213,-0.0
-12.579935003669213,-0.0,37.73980501100764,-0.0,12.579935003669213,-0.0,12.579935003669213,62.899675018346066,88.05954502568449,-0.0,12.579935003669213,-0.0
-25.159870007338426,12.579935003669213,25.159870007338426,-0.0,12.579935003669213,-0.0,12.579935003669213,88.05954502568449,100.6394800293537,-0.0,12.579935003669213,-0.0
-25.159870007338426,12.579935003669213,25.159870007338426,-0.0,12.579935003669213,-0.0,12.579935003669213,100.6394800293537,88.05954502568449,-0.0,12.579935003669213,-0.0
-25.159870007338426,12.579935003669213,25.159870007338426,-0.0,12.579935003669213,-0.0,12.579935003669213,113.21941503302293,88.05954502568449,-0.0,12.579935003669213,-0.0
-12.579935003669213,12.579935003669213,25.159870007338426,-0.0,12.579935003669213,-0.0,12.579935003669213,113.21941503302293,100.6394800293537,-0.0,12.579935003669213,-0.0
-0.0,12.579935003669213,25.159870007338426,-0.0,-0.0,-0.0,12.579935003669213,113.21941503302293,113.21941503302293,-0.0,12.579935003669213,-0.0
-0.0,12.579935003669213,12.579935003669213,-0.0,-0.0,-0.0,12.579935003669213,113.21941503302293,113.21941503302293,-0.0,12.579935003669213,-0.0
-0.0,-0.0,12.579935003669213,-0.0,-0.0,-0.0,12.579935003669213,113.21941503302293,100.6394800293537,-0.0,12.579935003669213,-0.0
-12.579935003669213,-0.0,25.159870007338426,-0.0,-0.0,-0.0,12.579935003669213,113.21941503302293,100.6394800293537,-0.0,12.579935003669213,-0.0
-25.159870007338426,-0.0,25.159870007338426,-0.0,12.579935003669213,12.579935003669213,12.579935003669213,125.79935003669213,113.21941503302293,-0.0,12.579935003669213,-0.0
-25.159870007338426,-0.0,25.159870007338426,-0.0,12.579935003669213,-0.0,-0.0,125.79935003669213,125.79935003669213,-0.0,12.579935003669213,-0.0
-25.159870007338426,12.579935003669213,25.159870007338426,-0.0,12.579935003669213,-0.0,-0.0,138.37928504036134,113.21941503302293,12.579935003669213,12.579935003669213,-0.0
-12.579935003669213,12.579935003669213,12.579935003669213,12.579935003669213,12.579935003669213,-12.579935003669213,-0.0,138.37928504036134,113.21941503302293,12.579935003669213,12.579935003669213,-0.0
-0.0,-0.0,12.579935003669213,12.579935003669213,-0.0,-12.579935003669213,-0.0,150.95922004403056,125.79935003669213,-0.0,12.579935003669213,-0.0
-0.0,-0.0,12.579935003669213,12.579935003669213,-0.0,-12.579935003669213,-0.0,150.95922004403056,125.79935003669213,-0.0,12.579935003669213,-0.0
-0.0,-0.0,12.579935003669213,12.579935003669213,-0.0,-12.579935003669213,-0.0,150.95922004403056,125.79935003669213,-0.0,12.579935003669213,-0.0
-0.0,-0.0,12.579935003669213,12.579935003669213,-0.0,-12.579935003669213,-0.0,150.95922004403056,125.79935003669213,-0.0,12.579935003669213,-0.0
-0.0,-0.0,12.579935003669213,12.579935003669213,-0.0,-0.0,-0.0,163.53915504769978,125.79935003669213,-0.0,12.579935003669213,-0.0
-0.0,-0.0,-0.0,-0.0,-0.0,-0.0,-0.0,163.53915504769978,138.37928504036134,-0.0,12.579935003669213,-0.0
-0.0,-0.0,-0.0,-0.0,12.579935003669213,-0.0,-0.0,163.53915504769978,138.37928504036134,12.579935003669213,12.579935003669213,-0.0
-0.0,-0.0,-0.0,-0.0,12.579935003669213,-0.0,-0.0,176.11909005136897,138.37928504036134,12.579935003669213,12.579935003669213,-0.0
-0.0,-0.0,-0.0,-0.0,-0.0,-0.0,-0.0,176.11909005136897,138.37928504036134,12.579935003669213,12.579935003669213,-0.0
-0.0,-0.0,-0.0,-0.0,-0.0,-0.0,-0.0,176.11909005136897,138.37928504036134,12.579935003669213,12.579935003669213,-0.0
-0.0,-0.0,-0.0,-0.0,-0.0,-0.0,-0.0,176.11909005136897,138.37928504036134,12.579935003669213,12.579935003669213,-0.0
-0.0,-0.0,-0.0,-0.0,-0.0,-0.0,-0.0,188.6990250550382,150.95922004403056,12.579935003669213,12.579935003669213,-0.0
-0.0,-0.0,-0.0,-0.0,12.579935003669213,12.579935003669213,-0.0,188.6990250550382,150.95922004403056,-0.0,12.579935003669213,-0.0
12.579935003669213,-0.0,-0.0,-0.0,12.579935003669213,12.579935003669213,-0.0,201.2789600587074,150.95922004403056,-0.0,12.579935003669213,-0.0
37.73980501100764,-0.0,-0.0,-0.0,-0.0,12.579935003669213,-0.0,201.2789600587074,150.95922004403056,-0.0,12.579935003669213,-0.0
50.31974001467685,-0.0,12.579935003669213,12.579935003669213,-0.0,-0.0,-0.0,201.2789600587074,150.95922004403056,-0.0,12.579935003669213,-0.0
62.899675018346066,-0.0,25.159870007338426,12.579935003669213,-0.0,-0.0,-0.0,213.85889506237663,150.95922004403056,-0.0,12.579935003669213,-0.0
75.47961002201528,12.579935003669213,25.159870007338426,-0.0,12.579935003669213,-0.0,-0.0,213.85889506237663,150.95922004403056,-0.0,12.579935003669213,-0.0
88.05954502568449,25.159870007338426,12.579935003669213,-0.0,12.579935003669213,-0.0,-0.0,213.85889506237663,150.95922004403056,-0.0,12.579935003669213,-0.0
113.21941503302293,25.159870007338426,-12.579935003669213,-0.0,-0.0,-0.0,-0.0,213.85889506237663,150.95922004403056,12.579935003669213,12.579935003669213,-0.0
125.79935003669213,25.159870007338426,-25.159870007338426,-0.0,-0.0,-12.579935003669213,-0.0,213.85889506237663,150.95922004403056,12.579935003669213,12.579935003669213,-0.0
113.21941503302293,25.159870007338426,-25.159870007338426,-0.0,-0.0,-12.579935003669213,-0.0,213.85889506237663,138.37928504036134,12.579935003669213,12.579935003669213,-0.0
100.6394800293537,37.73980501100764,-12.579935003669213,-0.0,-0.0,-12.579935003669213,-0.0,213.85889506237663,125.79935003669213,12.579935003669213,12.579935003669213,-0.0
75.47961002201528,50.31974001467685,-12.579935003669213,-0.0,-0.0,-0.0,12.579935003669213,213.85889506237663,113.21941503302293,12.579935003669213,25.159870007338426,-0.0
62.899675018346066,62.899675018346066,-25.159870007338426,-0.0,-0.0,12.579935003669213,25.159870007338426,213.85889506237663,113.21941503302293,12.579935003669213,25.159870007338426,12.579935003669213
75.47961002201528,75.47961002201528,-25.159870007338426,-0.0,-0.0,12.579935003669213,37.73980501100764,213.85889506237663,113.21941503302293,12.579935003669213,37.73980501100764,25.159870007338426
62.899675018346066,88.05954502568449,-12.579935003669213,-0.0,-0.0,12.579935003669213,37.73980501100764,213.85889506237663,100.6394800293537,12.579935003669213,50.31974001467685,37.73980501100764
50.31974001467685,113.21941503302293,-0.0,-0.0,-0.0,12.579935003669213,50.31974001467685,213.85889506237663,88.05954502568449,25.159870007338426,62.899675018346066,37.73980501100764
37.73980501100764,113.21941503302293,-0.0,-0.0,-0.0,12.579935003669213,62.899675018346066,201.2789600587074,75.47961002201528,37.73980501100764,62.899675018346066,37.73980501100764
25.159870007338426,100.6394800293537,-12.579935003669213,-0.0,-0.0,12.579935003669213,75.47961002201528,201.2789600587074,62.899675018346066,37.73980501100764,75.47961002201528,50.31974001467685
12.579935003669213,75.47961002201528,-12.579935003669213,-0.0,-0.0,12.579935003669213,75.47961002201528,201.2789600587074,50.31974001467685,50.31974001467685,88.05954502568449,62.899675018346066
-0.0,50.31974001467685,-12.579935003669213,-0.0,-0.0,12.579935003669213,62.899675018346066,201.2789600587074,25.159870007338426,62.899675018346066,100.6394800293537,75.47961002201528
-0.0,62.899675018346066,-12.579935003669213,-0.0,-0.0,-0.0,25.159870007338426,201.2789600587074,25.159870007338426,75.47961002201528,100.6394800293537,75.47961002201528
-12.579935003669213,50.31974001467685,-12.579935003669213,-0.0,-0.0,-0.0,-25.159870007338426,201.2789600587074,12.579935003669213,88.05954502568449,88.05954502568449,75.47961002201528
-25.159870007338426,50.31974001467685,-12.579935003669213,-12.579935003669213,-0.0,-0.0,-50.31974001467685,201.2789600587074,-0.0,100.6394800293537,75.47961002201528,62.899675018346066
-25.159870007338426,37.73980501100764,-12.579935003669213,-12.579935003669213,12.579935003669213,-0.0,-62.899675018346066,188.6990250550382,-0.0,113.21941503302293,62.899675018346066,62.899675018346066
-25.159870007338426,25.159870007338426,-12.579935003669213,-0.0,-0.0,-0.0,-62.899675018346066,188.6990250550382,-0.0,125.79935003669213,50.31974001467685,50.31974001467685
-25.159870007338426,12.579935003669213,-0.0,-0.0,-0.0,12.579935003669213,-75.47961002201528,188.6990250550382,-0.0,125.79935003669213,37.73980501100764,37.73980501100764
-25.159870007338426,-0.0,-0.0,-0.0,-0.0,12.579935003669213,-75.47961002201528,176.11909005136897,-0.0,113.21941503302293,25.159870007338426,25.159870007338426
-25.159870007338426,-0.0,-0.0,-0.0,-0.0,12.579935003669213,-75.47961002201528,176.11909005136897,-0.0,75.47961002201528,12.579935003669213,12.579935003669213
-25.159870007338426,-12.579935003669213,-0.0,-0.0,-0.0,12.579935003669213,-75.47961002201528,176.11909005136897,-0.0,50.31974001467685,12.579935003669213,-0.0
-25.159870007338426,-25.159870007338426,-0.0,12.579935003669213,-0.0,-0.0,-62.899675018346066,176.11909005136897,-0.0,25.159870007338426,12.579935003669213,-0.0
-25.159870007338426,-25.159870007338426,-0.0,12.579935003669213,-0.0,-0.0,-50.31974001467685,176.11909005136897,12.579935003669213,25.159870007338426,-0.0,-12.579935003669213
-37.73980501100764,-25.159870007338426,-0.0,12.579935003669213,-0.0,-0.0,-37.73980501100764,163.53915504769978,37.73980501100764,12.579935003669213,-0.0,-12.579935003669213
-62.899675018346066,-25.159870007338426,-0.0,12.579935003669213,-0.0,-0.0,-37.73980501100764,150.95922004403056,50.31974001467685,-0.0,-12.579935003669213,-12.579935003669213
-125.79935003669213,-25.159870007338426,-0.0,12.579935003669213,-0.0,-0.0,-37.73980501100764,138.37928504036134,75.47961002201528,-0.0,-12.579935003669213,-12.579935003669213
-163.53915504769978,-25.159870007338426,-0.0,12.579935003669213,-0.0,-0.0,-37.73980501100764,125.79935003669213,88.05954502568449,-0.0,-12.579935003669213,-12.579935003669213
-150.95922004403056,-25.159870007338426,-0.0,12.579935003669213,-0.0,-0.0,-37.73980501100764,100.6394800293537,100.6394800293537,-0.0,-12.579935003669213,-25.159870007338426
-88.05954502568449,-25.159870007338426,-12.579935003669213,12.579935003669213,-0.0,-0.0,-37.73980501100764,88.05954502568449,100.6394800293537,-0.0,-12.579935003669213,-25.159870007338426
50.31974001467685,-25.159870007338426,-0.0,12.579935003669213,-0.0,-0.0,-37.73980501100764,88.05954502568449,100.6394800293537,-12.579935003669213,-12.579935003669213,-25.159870007338426
289.3385050843919,-25.159870007338426,12.579935003669213,12.579935003669213,-0.0,-0.0,-25.159870007338426,88.05954502568449,100.6394800293537,-12.579935003669213,-12.579935003669213,-25.159870007338426
553.5171401614454,-50.31974001467685,-0.0,-0.0,-0.0,-0.0,-25.159870007338426,75.47961002201528,100.6394800293537,-12.579935003669213,-12.579935003669213,-25.159870007338426
717.0562952091451,-125.79935003669213,-25.159870007338426,-0.0,-0.0,-0.0,-25.159870007338426,75.47961002201528,100.6394800293537,-12.579935003669213,-12.579935003669213,-25.159870007338426
717.0562952091451,-201.2789600587074,12.579935003669213,-0.0,-0.0,-0.0,-0.0,62.899675018346066,88.05954502568449,-12.579935003669213,-25.159870007338426,-62.899675018346066
641.5766851871299,-150.95922004403056,113.21941503302293,12.579935003669213,-0.0,12.579935003669213,37.73980501100764,62.899675018346066,88.05954502568449,-12.579935003669213,-125.79935003669213,-188.6990250550382
553.5171401614454,25.159870007338426,239.01876506971504,12.579935003669213,-0.0,12.579935003669213,138.37928504036134,62.899675018346066,88.05954502568449,-12.579935003669213,-289.3385050843919,-364.81811510640716
452.8776601320917,289.3385050843919,339.6582450990688,12.579935003669213,-0.0,12.579935003669213,339.6582450990688,50.31974001467685,88.05954502568449,-12.579935003669213,-478.0375301394301,-540.9372051577761
364.81811510640716,641.5766851871299,377.3980501100764,-0.0,-0.0,-0.0,452.8776601320917,50.31974001467685,100.6394800293537,12.579935003669213,-603.8368801761222,-628.9967501834607
264.17863507705346,591.256945172453,339.6582450990688,-0.0,-0.0,-0.0,377.3980501100764,50.31974001467685,88.05954502568449,62.899675018346066,-691.8964252018068,-628.9967501834607
188.6990250550382,1069.2944753118832,389.9779851137456,-0.0,-0.0,-0.0,264.17863507705346,50.31974001467685,88.05954502568449,113.21941503302293,-704.4763602054759,-503.19740014676853
125.79935003669213,1107.0342803228907,503.19740014676853,-0.0,-0.0,-0.0,-138.37928504036134,50.31974001467685,88.05954502568449,138.37928504036134,-566.0970751651146,-201.2789600587074
62.899675018346066,1144.7740853338985,566.0970751651146,-0.0,-0.0,-0.0,-443.44270887933976,50.31974001467685,88.05954502568449,113.21941503302293,-339.6582450990688,138.37928504036134
12.579935003669213,1245.413565363252,490.6174651430993,-0.0,-0.0,-0.0,-748.5061327183182,50.31974001467685,88.05954502568449,37.73980501100764,-25.159870007338426,465.45759513576087
-12.579935003669213,968.6549952825294,364.81811510640716,-0.0,-0.0,12.579935003669213,-1053.5695565572967,50.31974001467685,88.05954502568449,-113.21941503302293,415.13785512108404,792.5359052311604
-12.579935003669213,742.2161652164835,239.01876506971504,-0.0,-0.0,12.579935003669213,-1358.6329803962751,50.31974001467685,88.05954502568449,-377.3980501100764,868.0155152531757,1069.2944753118832
-25.159870007338426,515.7773351504377,163.53915504769978,-0.0,-0.0,12.579935003669213,-1320.8931753852673,50.31974001467685,88.05954502568449,-704.4763602054759,1107.0342803228907,1195.0938253485754
-25.159870007338426,364.81811510640716,75.47961002201528,-0.0,-0.0,12.579935003669213,-1069.2944753118832,37.73980501100764,75.47961002201528,-918.3352552678525,1132.1941503302291,1132.1941503302291
-25.159870007338426,226.43883006604585,37.73980501100764,-0.0,-0.0,12.579935003669213,-817.6957752384989,37.73980501100764,75.47961002201528,-880.595450256845,1044.1346053045447,968.6549952825294
-25.159870007338426,100.6394800293537,12.579935003669213,-0.0,-0.0,-0.0,-515.7773351504377,37.73980501100764,75.47961002201528,-515.7773351504377,905.7553202641834,792.5359052311604
-25.159870007338426,37.73980501100764,-0.0,-0.0,-0.0,-0.0,-314.49837509173034,37.73980501100764,75.47961002201528,-37.73980501100764,679.3164901981376,616.4168151797915
-25.159870007338426,-0.0,-12.579935003669213,-0.0,-0.0,-0.0,-188.6990250550382,37.73980501100764,75.47961002201528,301.9184400880611,478.0375301394301,427.71779012475326
-25.159870007338426,-25.159870007338426,-12.579935003669213,-0.0,-0.0,-0.0,-75.47961002201528,37.73980501100764,75.47961002201528,440.2977251284225,327.07831009539956,251.59870007338426
-37.73980501100764,-25.159870007338426,-0.0,-0.0,-0.0,-0.0,-0.0,37.73980501100764,75.47961002201528,478.0375301394301,201.2789600587074,125.79935003669213
-50.31974001467685,-25.159870007338426,-0.0,-0.0,-0.0,-0.0,50.31974001467685,37.73980501100764,75.47961002201528,415.13785512108404,100.6394800293537,50.31974001467685
-50.31974001467685,-25.159870007338426,-12.579935003669213,-0.0,-0.0,-0.0,100.6394800293537,37.73980501100764,75.47961002201528,289.3385050843919,50.31974001467685,12.579935003669213
-50.31974001467685,-25.159870007338426,-12.579935003669213,-0.0,-0.0,12.579935003669213,113.21941503302293,37.73980501100764,75.47961002201528,188.6990250550382,25.159870007338426,-0.0
-25.159870007338426,-37.73980501100764,-12.579935003669213,-0.0,-0.0,12.579935003669213,113.21941503302293,25.159870007338426,75.47961002201528,113.21941503302293,25.159870007338426,-0.0
-12.579935003669213,-37.73980501100764,-12.579935003669213,-0.0,12.579935003669213,12.579935003669213,113.21941503302293,25.159870007338426,75.47961002201528,75.47961002201528,37.73980501100764,-0.0
-25.159870007338426,-37.73980501100764,-0.0,-0.0,12.579935003669213,12.579935003669213,125.79935003669213,25.159870007338426,75.47961002201528,50.31974001467685,25.159870007338426,-0.0
-25.159870007338426,-37.73980501100764,12.579935003669213,-0.0,-0.0,-0.0,125.79935003669213,25.159870007338426,75.47961002201528,25.159870007338426,12.579935003669213,-0.0
-25.159870007338426,-37.73980501100764,12.579935003669213,-12.579935003669213,-0.0,-0.0,125.79935003669213,25.159870007338426,62.899675018346066,12.579935003669213,25.159870007338426,-0.0
-37.73980501100764,-37.73980501100764,-0.0,-25.159870007338426,-0.0,-0.0,138.37928504036134,25.159870007338426,62.899675018346066,12.579935003669213,25.159870007338426,-0.0
-37.73980501100764,-37.73980501100764,-12.579935003669213,-37.73980501100764,12.579935003669213,-0.0,138.37928504036134,25.159870007338426,62.899675018346066,12.579935003669213,25.159870007338426,-0.0
-37.73980501100764,-37.73980501100764,-12.579935003669213,-50.31974001467685,25.159870007338426,12.579935003669213,138.37928504036134,25.159870007338426,62.899675018346066,-0.0,25.159870007338426,-0.0
-37.73980501100764,-25.159870007338426,-12.579935003669213,-50.31974001467685,37.73980501100764,25.159870007338426,138.37928504036134,25.159870007338426,50.31974001467685,-0.0,25.159870007338426,-0.0
-37.73980501100764,-25.159870007338426,-12.579935003669213,-62.899675018346066,37.73980501100764,25.159870007338426,150.95922004403056,25.159870007338426,50.31974001467685,-0.0,25.159870007338426,-0.0
-37.73980501100764,-37.73980501100764,-12.579935003669213,-75.47961002201528,37.73980501100764,25.159870007338426,150.95922004403056,25.159870007338426,50.31974001467685,-0.0,25.159870007338426,-0.0
-37.73980501100764,-37.73980501100764,-12.579935003669213,-88.05954502568449,37.73980501100764,25.159870007338426,150.95922004403056,12.579935003669213,50.31974001467685,-0.0,25.159870007338426,-0.0
-50.31974001467685,-37.73980501100764,-0.0,-100.6394800293537,37.73980501100764,37.73980501100764,163.53915504769978,12.579935003669213,50.31974001467685,-0.0,25.159870007338426,-0.0
-50.31974001467685,-37.73980501100764,-0.0,-113.21941503302293,37.73980501100764,50.31974001467685,163.53915504769978,12.579935003669213,50.31974001467685,-0.0,12.579935003669213,-0.0
-50.31974001467685,-37.73980501100764,-0.0,-125.79935003669213,37.73980501100764,50.31974001467685,163.53915504769978,12.579935003669213,50.31974001467685,-0.0,12.579935003669213,-0.0
-50.31974001467685,-37.73980501100764,-0.0,-125.79935003669213,37.73980501100764,62.899675018346066,163.53915504769978,12.579935003669213,50.31974001467685,12.579935003669213,12.579935003669213,-0.0
-50.31974001467685,-37.73980501100764,12.579935003669213,-113.21941503302293,25.159870007338426,75.47961002201528,163.53915504769978,12.579935003669213,50.31974001467685,12.579935003669213,12.579935003669213,-0.0
-62.899675018346066,-37.73980501100764,12.579935003669213,-100.6394800293537,25.159870007338426,88.05954502568449,176.11909005136897,12.579935003669213,50.31974001467685,12.579935003669213,12.579935003669213,-0.0
-62.899675018346066,-37.73980501100764,12.579935003669213,-88.05954502568449,25.159870007338426,88.05954502568449,176.11909005136897,12.579935003669213,50.31974001467685,12.579935003669213,12.579935003669213,-0.0
-62.899675018346066,-37.73980501100764,12.579935003669213,-75.47961002201528,37.73980501100764,75.47961002201528,176.11909005136897,12.579935003669213,50.31974001467685,12.579935003669213,25.159870007338426,-0.0
-75.47961002201528,-37.73980501100764,12.579935003669213,-62.899675018346066,37.73980501100764,62.899675018346066,176.11909005136897,12.579935003669213,50.31974001467685,12.579935003669213,25.159870007338426,-0.0
-88.05954502568449,-37.73980501100764,12.579935003669213,-50.31974001467685,25.159870007338426,50.31974001467685,176.11909005136897,12.579935003669213,50.31974001467685,12.579935003669213,12.579935003669213,-0.0
-100.6394800293537,-37.73980501100764,12.579935003669213,-37.73980501100764,25.159870007338426,50.31974001467685,188.6990250550382,12.579935003669213,50.31974001467685,12.579935003669213,12.579935003669213,-0.0
-100.6394800293537,-37.73980501100764,12.579935003669213,-25.159870007338426,12.579935003669213,37.73980501100764,188.6990250550382,-0.0,50.31974001467685,12.579935003669213,12.579935003669213,-0.0
-113.21941503302293,-50.31974001467685,12.579935003669213,-25.159870007338426,-0.0,12.579935003669213,201.2789600587074,-0.0,37.73980501100764,12.579935003669213,12.579935003669213,-12.579935003669213
-125.79935003669213,-50.31974001467685,12.579935003669213,-12.579935003669213,-0.0,12.579935003669213,201.2789600587074,-0.0,37.73980501100764,-0.0,12.579935003669213,-12.579935003669213
-138.37928504036134,-62.899675018346066,12.579935003669213,-0.0,-0.0,12.579935003669213,201.2789600587074,-0.0,37.73980501100764,-0.0,12.579935003669213,-12.579935003669213
-150.95922004403056,-75.47961002201528,12.579935003669213,12.579935003669213,-0.0,12.579935003669213,213.85889506237663,-0.0,50.31974001467685,-0.0,-0.0,-25.159870007338426
-163.53915504769978,-75.47961002201528,12.579935003669213,12.579935003669213,-0.0,12.579935003669213,213.85889506237663,-0.0,50.31974001467685,-0.0,-12.579935003669213,-25.159870007338426
-176.11909005136897,-88.05954502568449,12.579935003669213,12.579935003669213,-0.0,-0.0,226.43883006604585,-0.0,37.73980501100764,-0.0,-25.159870007338426,-37.73980501100764
-188.6990250550382,-100.6394800293537,12.579935003669213,12.579935003669213,-0.0,-0.0,239.01876506971504,-0.0,37.73980501100764,-12.579935003669213,-37.73980501100764,-37.73980501100764
-201.2789600587074,-100.6394800293537,12.579935003669213,25.159870007338426,-0.0,-0.0,239.01876506971504,-0.0,37.73980501100764,-25.159870007338426,-37.73980501100764,-37.73980501100764
-213.85889506237663,-113.21941503302293,12.579935003669213,25.159870007338426,-0.0,-0.0,239.01876506971504,-0.0,37.73980501100764,-25.159870007338426,-50.31974001467685,-50.31974001467685
-226.43883006604585,-125.79935003669213,12.579935003669213,25.159870007338426,-0.0,-0.0,251.59870007338426,-0.0,37.73980501100764,-37.73980501100764,-62.899675018346066,-62.899675018346066
-226.43883006604585,-138.37928504036134,25.159870007338426,37.73980501100764,-12.579935003669213,-0.0,264.17863507705346,-0.0,37.73980501100764,-50.31974001467685,-75.47961002201528,-75.47961002201528
-226.43883006604585,-138.37928504036134,25.159870007338426,88.05954502568449,-12.579935003669213,-12.579935003669213,264.17863507705346,-0.0,37.73980501100764,-62.899675018346066,-100.6394800293537,-75.47961002201528
-226.43883006604585,-150.95922004403056,25.159870007338426,163.53915504769978,-12.579935003669213,-12.579935003669213,276.7585700807227,-0.0,37.73980501100764,-75.47961002201528,-113.21941503302293,-88.05954502568449
-213.85889506237663,-163.53915504769978,37.73980501100764,188.6990250550382,-25.159870007338426,-25.159870007338426,289.3385050843919,-0.0,37.73980501100764,-88.05954502568449,-138.37928504036134,-100.6394800293537
-201.2789600587074,-163.53915504769978,37.73980501100764,113.21941503302293,-62.899675018346066,-62.899675018346066,289.3385050843919,-0.0,37.73980501100764,-100.6394800293537,-150.95922004403056,-113.21941503302293
-176.11909005136897,-163.53915504769978,37.73980501100764,-37.73980501100764,-88.05954502568449,-125.79935003669213,301.9184400880611,-0.0,37.73980501100764,-113.21941503302293,-163.53915504769978,-138.37928504036134
-150.95922004403056,-163.53915504769978,50.31974001467685,-264.17863507705346,-88.05954502568449,-138.37928504036134,314.49837509173034,-0.0,37.73980501100764,-138.37928504036134,-188.6990250550382,-150.95922004403056
-138.37928504036134,-163.53915504769978,50.31974001467685,-566.0970751651146,-50.31974001467685,-37.73980501100764,314.49837509173034,12.579935003669213,37.73980501100764,-163.53915504769978,-213.85889506237663,-163.53915504769978
-125.79935003669213,-163.53915504769978,50.31974001467685,-817.6957752384989,-12.579935003669213,138.37928504036134,327.07831009539956,12.579935003669213,37.73980501100764,-188.6990250550382,-213.85889506237663,-176.11909005136897
-100.6394800293537,-150.95922004403056,62.899675018346066,-930.9151902715217,-12.579935003669213,364.81811510640716,339.6582450990688,25.159870007338426,37.73980501100764,-201.2789600587074,-213.85889506237663,-176.11909005136897
-88.05954502568449,-138.37928504036134,62.899675018346066,-918.3352552678525,-62.899675018346066,628.9967501834607,352.23818010273794,37.73980501100764,37.73980501100764,-213.85889506237663,-213.85889506237663,-176.11909005136897
-62.899675018346066,-125.79935003669213,62.899675018346066,-868.0155152531757,-113.21941503302293,842.8556452458373,352.23818010273794,37.73980501100764,50.31974001467685,-239.01876506971504,-213.85889506237663,-163.53915504769978
-50.31974001467685,-113.21941503302293,62.899675018346066,-779.9559702274912,-113.21941503302293,943.495125275191,352.23818010273794,37.73980501100764,50.31974001467685,-251.59870007338426,-213.85889506237663,-150.95922004403056
-50.31974001467685,-88.05954502568449,62.899675018346066,-641.5766851871299,-62.899675018346066,993.8148652898678,339.6582450990688,62.899675018346066,62.899675018346066,-264.17863507705346,-201.2789600587074,-138.37928504036134
-37.73980501100764,-75.47961002201528,62.899675018346066,-490.6174651430993,-25.159870007338426,981.2349302861986,327.07831009539956,75.47961002201528,62.899675018346066,-264.17863507705346,-188.6990250550382,-138.37928504036134
-25.159870007338426,-50.31974001467685,62.899675018346066,-352.23818010273794,-0.0,893.1753852605142,314.49837509173034,88.05954502568449,75.47961002201528,-264.17863507705346,-176.11909005136897,-125.79935003669213
-12.579935003669213,-37.73980501100764,50.31974001467685,-239.01876506971504,12.579935003669213,717.0562952091451,301.9184400880611,88.05954502568449,88.05954502568449,-264.17863507705346,-163.53915504769978,-113.21941503302293
-0.0,-25.159870007338426,37.73980501100764,-150.95922004403056,25.159870007338426,528.3572701541069,289.3385050843919,88.05954502568449,100.6394800293537,-251.59870007338426,-150.95922004403056,-100.6394800293537
-12.579935003669213,-12.579935003669213,37.73980501100764,-88.05954502568449,12.579935003669213,364.81811510640716,264.17863507705346,62.899675018346066,113.21941503302293,-239.01876506971504,-125.79935003669213,-88.05954502568449
-12.579935003669213,-0.0,37.73980501100764,-50.31974001467685,12.579935003669213,239.01876506971504,239.01876506971504,37.73980501100764,125.79935003669213,-213.85889506237663,-113.21941503302293,-75.47961002201528
-12.579935003669213,-0.0,37.73980501100764,-25.159870007338426,12.579935003669213,138.37928504036134,213.85889506237663,12.579935003669213,138.37928504036134,-176.11909005136897,-100.6394800293537,-62.899675018346066
-0.0,-0.0,25.159870007338426,-12.579935003669213,12.579935003669213,75.47961002201528,188.6990250550382,-0.0,138.37928504036134,-150.95922004403056,-88.05954502568449,-62.899675018346066
-0.0,12.579935003669213,25.159870007338426,-0.0,-0.0,37.73980501100764,163.53915504769978,-12.579935003669213,125.79935003669213,-138.37928504036134,-75.47961002201528,-62.899675018346066
-0.0,12.579935003669213,37.73980501100764,-0.0,-0.0,12.579935003669213,138.37928504036134,-12.579935003669213,100.6394800293537,-113.21941503302293,-75.47961002201528,-50.31974001467685
-0.0,25.159870007338426,37.73980501100764,12.579935003669213,-0.0,-12.579935003669213,113.21941503302293,-25.159870007338426,75.47961002201528,-100.6394800293537,-62.899675018346066,-50.31974001467685
-0.0,25.159870007338426,37.73980501100764,25.159870007338426,-0.0,-12.579935003669213,88.05954502568449,-25.159870007338426,62.899675018346066,-88.05954502568449,-37.73980501100764,-50.31974001467685
-0.0,25.159870007338426,25.159870007338426,25.159870007338426,-0.0,-12.579935003669213,75.47961002201528,-25.159870007338426,37.73980501100764,-75.47961002201528,-25.159870007338426,-37.73980501100764
-0.0,25.159870007338426,25.159870007338426,25.159870007338426,-0.0,-12.579935003669213,62.899675018346066,-12.579935003669213,25.159870007338426,-62.899675018346066,-25.159870007338426,-37.73980501100764
-0.0,25.159870007338426,25.159870007338426,12.579935003669213,-0.0,-12.579935003669213,50.31974001467685,-12.579935003669213,12.579935003669213,-50.31974001467685,-25.159870007338426,-37.73980501100764
-0.0,25.159870007338426,25.159870007338426,12.579935003669213,-0.0,-12.579935003669213,37.73980501100764,-12.579935003669213,-0.0,-37.73980501100764,-25.159870007338426,-25.159870007338426
-0.0,25.159870007338426,37.73980501100764,12.579935003669213,-0.0,-12.579935003669213,37.73980501100764,-12.579935003669213,-0.0,-25.159870007338426,-25.159870007338426,-25.159870007338426
-0.0,25.159870007338426,25.159870007338426,25.159870007338426,-0.0,-0.0,37.73980501100764,-12.579935003669213,12.579935003669213,-12.579935003669213,-12.579935003669213,-25.159870007338426
-12.579935003669213,25.159870007338426,25.159870007338426,37.73980501100764,-12.579935003669213,-12.579935003669213,25.159870007338426,-12.579935003669213,12.579935003669213,-0.0,-0.0,-25.159870007338426
-12.579935003669213,25.159870007338426,12.579935003669213,25.159870007338426,-0.0,-12.579935003669213,25.159870007338426,-12.579935003669213,12.579935003669213,-0.0,-0.0,-25.159870007338426
-0.0,25.159870007338426,12.579935003669213,12.579935003669213,-0.0,-12.579935003669213,25.159870007338426,-12.579935003669213,-0.0,-0.0,-0.0,-25.159870007338426
-12.579935003669213,25.159870007338426,12.579935003669213,12.579935003669213,-0.0,-12.579935003669213,25.159870007338426,-12.579935003669213,-0.0,-0.0,-0.0,-25.159870007338426
-12.579935003669213,25.159870007338426,12.579935003669213,12.579935003669213,-0.0,-12.579935003669213,25.159870007338426,-12.579935003669213,-0.0,-0.0,-0.0,-25.159870007338426
-12.579935003669213,25.159870007338426,12.579935003669213,12.579935003669213,-0.0,-12.579935003669213,25.159870007338426,-12.579935003669213,-0.0,12.579935003669213,-0.0,-25.159870007338426
-12.579935003669213,25.159870007338426,12.579935003669213,12.579935003669213,-0.0,-12.579935003669213,25.159870007338426,25.159870007338426,-0.0,12.579935003669213,-0.0,-25.159870007338426
-12.579935003669213,12.579935003669213,25.159870007338426,25.159870007338426,-0.0,-12.579935003669213,25.159870007338426,113.21941503302293,-0.0,12.579935003669213,-0.0,-25.159870007338426
-12.579935003669213,12.579935003669213,25.159870007338426,25.159870007338426,-0.0,-12.579935003669213,25.159870007338426,301.9184400880611,-0.0,12.579935003669213,-0.0,-25.159870007338426
-12.579935003669213,12.579935003669213,25.159870007338426,25.159870007338426,-0.0,-12.579935003669213,25.159870007338426,490.6174651430993,12.579935003669213,12.579935003669213,-0.0,-25.159870007338426
-12.579935003669213,12.579935003669213,25.159870007338426,25.159870007338426,-0.0,-12.579935003669213,25.159870007338426,389.9779851137456,50.31974001467685,12.579935003669213,-0.0,-25.159870007338426
-12.579935003669213,12.579935003669213,12.579935003669213,25.159870007338426,-0.0,-12.579935003669213,25.159870007338426,125.79935003669213,138.37928504036134,12.579935003669213,-0.0,-25.159870007338426
-12.579935003669213,12.579935003669213,12.579935003669213,25.159870007338426,-0.0,-12.579935003669213,25.159870007338426,-264.17863507705346,301.9184400880611,12.579935003669213,-0.0,-25.159870007338426
-12.579935003669213,-0.0,12.579935003669213,25.159870007338426,-0.0,-12.579935003669213,25.159870007338426,-993.8148652898678,440.2977251284225,12.579935003669213,-0.0,-25.159870007338426
-12.579935003669213,-0.0,12.579935003669213,25.159870007338426,-0.0,-12.579935003669213,25.159870007338426,-1899.5701855540512,327.07831009539956,12.579935003669213,-0.0,-25.159870007338426
-0.0,-0.0,12.579935003669213,37.73980501100764,-0.0,-12.579935003669213,25.159870007338426,-2478.247195722835,50.31974001467685,12.579935003669213,-0.0,-25.159870007338426
-0.0,-0.0,12.579935003669213,37.73980501100764,-0.0,-12.579935003669213,25.159870007338426,-2402.76758570082,-364.81811510640716,12.579935003669213,-0.0,-25.159870007338426
-0.0,-0.0,12.579935003669213,37.73980501100764,-0.0,-12.579935003669213,25.159870007338426,-1899.5701855540512,1144.7740853338985,12.579935003669213,-0.0,-25.159870007338426
-0.0,-0.0,-0.0,37.73980501100764,-0.0,-12.579935003669213,25.159870007338426,-1320.8931753852673,540.9372051577761,12.579935003669213,-0.0,-25.159870007338426
-12.579935003669213,-0.0,-0.0,50.31974001467685,-0.0,-12.579935003669213,25.159870007338426,-880.595450256845,-37.73980501100764,12.579935003669213,-0.0,-37.73980501100764
-12.579935003669213,-0.0,-0.0,62.899675018346066,-0.0,-25.159870007338426,25.159870007338426,-540.9372051577761,37.73980501100764,12.579935003669213,-0.0,-37.73980501100764
-12.579935003669213,-12.579935003669213,-0.0,62.899675018346066,-0.0,-25.159870007338426,25.159870007338426,-289.3385050843919,540.9372051577761,-0.0,-0.0,-37.73980501100764
-12.579935003669213,-12.579935003669213,-0.0,50.31974001467685,-0.0,-37.73980501100764,25.159870007338426,-138.37928504036134,-817.6957752384989,-0.0,-12.579935003669213,-37.73980501100764
-0.0,-12.579935003669213,-0.0,50.31974001467685,-0.0,-37.73980501100764,25.159870007338426,-50.31974001467685,-415.13785512108404,-0.0,-12.579935003669213,-37.73980501100764
-0.0,-0.0,-0.0,50.31974001467685,-12.579935003669213,-37.73980501100764,12.579935003669213,12.579935003669213,-150.95922004403056,-0.0,-12.579935003669213,-25.159870007338426
-0.0,-0.0,-0.0,62.899675018346066,-12.579935003669213,-37.73980501100764,12.579935003669213,62.899675018346066,25.159870007338426,-0.0,-0.0,-25.159870007338426
-0.0,-0.0,12.579935003669213,62.899675018346066,-12.579935003669213,-37.73980501100764,12.579935003669213,88.05954502568449,88.05954502568449,-0.0,-0.0,-25.159870007338426
-0.0,-0.0,12.579935003669213,75.47961002201528,-12.579935003669213,-37.73980501100764,12.579935003669213,113.21941503302293,75.47961002201528,-0.0,-0.0,-25.159870007338426
-0.0,-0.0,-0.0,88.05954502568449,-25.159870007338426,-25.159870007338426,12.579935003669213,125.79935003669213,75.47961002201528,-0.0,-0.0,-25.159870007338426
-0.0,-0.0,-0.0,100.6394800293537,-37.73980501100764,-25.159870007338426,12.579935003669213,125.79935003669213,88.05954502568449,-0.0,-0.0,-25.159870007338426
-0.0,-0.0,-0.0,100.6394800293537,-37.73980501100764,-37.73980501100764,12.579935003669213,125.79935003669213,88.05954502568449,-0.0,-0.0,-25.159870007338426
-0.0,-12.579935003669213,-0.0,100.6394800293537,-37.73980501100764,-50.31974001467685,12.579935003669213,138.37928504036134,88.05954502568449,-0.0,-0.0,-25.159870007338426
-0.0,-12.579935003669213,-0.0,100.6394800293537,-50.31974001467685,-50.31974001467685,-0.0,138.37928504036134,88.05954502568449,-0.0,-0.0,-25.159870007338426
-0.0,-0.0,-0.0,100.6394800293537,-50.31974001467685,-37.73980501100764,-0.0,138.37928504036134,88.05954502568449,-0.0,-0.0,-25.159870007338426
-0.0,-0.0,-0.0,100.6394800293537,-50.31974001467685,-37.73980501100764,-0.0,150.95922004403056,88.05954502568449,-0.0,-0.0,-25.159870007338426
-0.0,-0.0,-0.0,100.6394800293537,-50.31974001467685,-37.73980501100764,-0.0,150.95922004403056,88.05954502568449,-0.0,-0.0,-25.159870007338426
-0.0,-0.0,-0.0,88.05954502568449,-62.899675018346066,-37.73980501100764,-0.0,150.95922004403056,88.05954502568449,-0.0,-0.0,-25.159870007338426
-0.0,-0.0,-0.0,75.47961002201528,-62.899675018346066,-37.73980501100764,-0.0,163.53915504769978,88.05954502568449,-0.0,-0.0,-25.159870007338426
-0.0,-0.0,-0.0,62.899675018346066,-62.899675018346066,-37.73980501100764,-0.0,163.53915504769978,100.6394800293537,-0.0,-0.0,-37.73980501100764
-0.0,-0.0,-0.0,50.31974001467685,-62.899675018346066,-25.159870007338426,-0.0,176.11909005136897,100.6394800293537,-0.0,-0.0,-37.73980501100764
-0.0,-0.0,-0.0,50.31974001467685,-62.899675018346066,-12.579935003669213,-0.0,176.11909005136897,100.6394800293537,-0.0,-0.0,-37.73980501100764
-0.0,-0.0,-0.0,37.73980501100764,-62.899675018346066,-0.0,-0.0,176.11909005136897,100.6394800293537,-0.0,-0.0,-37.73980501100764
-12.579935003669213,-0.0,-0.0,25.159870007338426,-62.899675018346066,12.579935003669213,-12.579935003669213,188.6990250550382,113.21941503302293,-0.0,-0.0,-37.73980501100764
-12.579935003669213,-0.0,-0.0,12.579935003669213,-50.31974001467685,25.159870007338426,-12.579935003669213,188.6990250550382,113.21941503302293,-0.0,-0.0,-37.73980501100764
-12.579935003669213,-0.0,12.579935003669213,-0.0,-50.31974001467685,37.73980501100764,-12.579935003669213,188.6990250550382,113.21941503302293,-0.0,-0.0,-37.73980501100764
-0.0,-0.0,-0.0,-12.579935003669213,-37.73980501100764,50.31974001467685,-12.579935003669213,201.2789600587074,125.79935003669213,-0.0,-0.0,-37.73980501100764
-0.0,-0.0,-0.0,-25.159870007338426,-25.159870007338426,50.31974001467685,-12.579935003669213,201.2789600587074,125.79935003669213,-0.0,-0.0,-37.73980501100764
-0.0,-0.0,-0.0,-25.159870007338426,-12.579935003669213,50.31974001467685,-12.579935003669213,201.2789600587074,125.79935003669213,-0.0,-0.0,-37.73980501100764
-0.0,-0.0,-0.0,-25.159870007338426,-0.0,50.31974001467685,-12.579935003669213,201.2789600587074,125.79935003669213,-0.0,-0.0,-50.31974001467685
-0.0,-12.579935003669213,-0.0,-25.159870007338426,-12.579935003669213,50.31974001467685,-12.579935003669213,201.2789600587074,125.79935003669213,-0.0,-0.0,-50.31974001467685
-0.0,-12.579935003669213,-0.0,-25.159870007338426,-12.579935003669213,50.31974001467685,-12.579935003669213,201.2789600587074,138.37928504036134,-0.0,-0.0,-50.31974001467685
-0.0,-12.579935003669213,-0.0,-25.159870007338426,-12.579935003669213,50.31974001467685,-12.579935003669213,213.85889506237663,138.37928504036134,-0.0,-0.0,-50.31974001467685
-0.0,-0.0,-12.579935003669213,-25.159870007338426,-12.579935003669213,50.31974001467685,-12.579935003669213,213.85889506237663,138.37928504036134,-0.0,-0.0,-37.73980501100764
-0.0,-0.0,-12.579935003669213,-25.159870007338426,-0.0,50.31974001467685,-12.579935003669213,213.85889506237663,138.37928504036134,-0.0,-0.0,-37.73980501100764
-0.0,-0.0,-12.579935003669213,-25.159870007338426,-12.579935003669213,50.31974001467685,-12.579935003669213,213.85889506237663,138.37928504036134,-0.0,-0.0,-37.73980501100764
-0.0,-0.0,-0.0,-25.159870007338426,-12.579935003669213,50.31974001467685,-12.579935003669213,226.43883006604585,138.37928504036134,-0.0,-0.0,-37.73980501100764
-0.0,-0.0,-12.579935003669213,-25.159870007338426,-12.579935003669213,50.31974001467685,-12.579935003669213,226.43883006604585,138.37928504036134,-0.0,-0.0,-37.73980501100764
-0.0,-0.0,-12.579935003669213,-25.159870007338426,-12.579935003669213,50.31974001467685,-12.579935003669213,226.43883006604585,138.37928504036134,-0.0,-0.0,-37.73980501100764
-0.0,-0.0,-12.579935003669213,-25.159870007338426,-0.0,50.31974001467685,-12.579935003669213,226.43883006604585,138.37928504036134,-0.0,-0.0,-37.73980501100764
-0.0,-0.0,-12.579935003669213,-25.159870007338426,-12.579935003669213,50.31974001467685,-12.579935003669213,239.01876506971504,125.79935003669213,-0.0,-0.0,-37.73980501100764
-0.0,-0.0,-0.0,-12.579935003669213,-12.579935003669213,50.31974001467685,-12.579935003669213,239.01876506971504,125.79935003669213,-0.0,-0.0,-37.73980501100764
-0.0,-0.0,-0.0,-12.579935003669213,-12.579935003669213,37.73980501100764,-12.579935003669213,239.01876506971504,125.79935003669213,-0.0,-0.0,-37.73980501100764
12.579935003669213,-12.579935003669213,-0.0,-12.579935003669213,-12.579935003669213,37.73980501100764,-12.579935003669213,239.01876506971504,113.21941503302293,-0.0,-0.0,-37.73980501100764
12.579935003669213,-12.579935003669213,-0.0,-12.579935003669213,-12.579935003669213,50.31974001467685,-12.579935003669213,239.01876506971504,100.6394800293537,-0.0,-0.0,-50.31974001467685
12.579935003669213,-12.579935003669213,-0.0,-12.579935003669213,-12.579935003669213,50.31974001467685,-12.579935003669213,226.43883006604585,100.6394800293537,-0.0,-0.0,-50.31974001467685
25.159870007338426,-0.0,-0.0,-0.0,-12.579935003669213,50.31974001467685,-25.159870007338426,226.43883006604585,88.05954502568449,-0.0,-0.0,-50.31974001467685
50.31974001467685,-0.0,-0.0,-0.0,-12.579935003669213,37.73980501100764,-25.159870007338426,226.43883006604585,75.47961002201528,-0.0,-0.0,-50.31974001467685
88.05954502568449,12.579935003669213,12.579935003669213,-0.0,-25.159870007338426,25.159870007338426,-25.159870007338426,226.43883006604585,62.899675018346066,-0.0,-0.0,-50.31974001467685
100.6394800293537,25.159870007338426,-0.0,-0.0,-25.159870007338426,25.159870007338426,-25.159870007338426,226.43883006604585,50.31974001467685,-0.0,-0.0,-50.31974001467685
113.21941503302293,25.159870007338426,-0.0,-0.0,-12.579935003669213,25.159870007338426,-25.159870007338426,213.85889506237663,37.73980501100764,-0.0,-0.0,-50.31974001467685
113.21941503302293,25.159870007338426,-12.579935003669213,-0.0,-12.579935003669213,25.159870007338426,-25.159870007338426,213.85889506237663,12.579935003669213,-0.0,12.579935003669213,-37.73980501100764
113.21941503302293,25.159870007338426,-12.579935003669213,12.579935003669213,-12.579935003669213,37.73980501100764,-12.579935003669213,213.85889506237663,-0.0,-0.0,12.579935003669213,-37.73980501100764
100.6394800293537,25.159870007338426,-25.159870007338426,12.579935003669213,-12.579935003669213,37.73980501100764,-0.0,213.85889506237663,-0.0,-0.0,-0.0,-50.31974001467685
88.05954502568449,37.73980501100764,-37.73980501100764,25.159870007338426,-12.579935003669213,25.159870007338426,-0.0,213.85889506237663,-0.0,-0.0,-0.0,-50.31974001467685
75.47961002201528,50.31974001467685,-37.73980501100764,25.159870007338426,-12.579935003669213,12.579935003669213,12.579935003669213,226.43883006604585,-0.0,-0.0,-0.0,-50.31974001467685
75.47961002201528,62.899675018346066,-37.73980501100764,25.159870007338426,-12.579935003669213,12.579935003669213,25.159870007338426,213.85889506237663,-0.0,-0.0,-0.0,-50.31974001467685
75.47961002201528,75.47961002201528,-25.159870007338426,25.159870007338426,-12.579935003669213,12.579935003669213,37.73980501100764,213.85889506237663,-0.0,-0.0,-0.0,-37.73980501100764
62.899675018346066,88.05954502568449,-12.579935003669213,25.159870007338426,-12.579935003669213,12.579935003669213,37.73980501100764,213.85889506237663,-0.0,-0.0,-0.0,-37.73980501100764
50.31974001467685,100.6394800293537,-12.579935003669213,25.159870007338426,-12.579935003669213,12.579935003669213,50.31974001467685,213.85889506237663,-0.0,-0.0,-0.0,-37.73980501100764
37.73980501100764,88.05954502568449,-12.579935003669213,25.159870007338426,-0.0,12.579935003669213,62.899675018346066,213.85889506237663,-0.0,-0.0,-0.0,-37.73980501100764
25.159870007338426,75.47961002201528,-25.159870007338426,25.159870007338426,-0.0,12.579935003669213,75.47961002201528,201.2789600587074,-0.0,-0.0,-0.0,-37.73980501100764
-0.0,50.31974001467685,-25.159870007338426,25.159870007338426,-0.0,-0.0,62.899675018346066,188.6990250550382,25.159870007338426,-0.0,12.579935003669213,-37.73980501100764
-0.0,37.73980501100764,-25.159870007338426,25.159870007338426,-0.0,-0.0,25.159870007338426,176.11909005136897,50.31974001467685,-0.0,12.579935003669213,-37.73980501100764
-0.0,50.31974001467685,-25.159870007338426,25.159870007338426,-0.0,-0.0,-25.159870007338426,163.53915504769978,62.899675018346066,-0.0,12.579935003669213,-37.73980501100764
-12.579935003669213,37.73980501100764,-25.159870007338426,25.159870007338426,-0.0,-0.0,-50.31974001467685,150.95922004403056,75.47961002201528,-0.0,12.579935003669213,-37.73980501100764
-12.579935003669213,25.159870007338426,-25.159870007338426,37.73980501100764,-0.0,-0.0,-75.47961002201528,125.79935003669213,88.05954502568449,-0.0,12.579935003669213,-37.73980501100764
-12.579935003669213,25.159870007338426,-25.159870007338426,25.159870007338426,-0.0,-0.0,-88.05954502568449,125.79935003669213,88.05954502568449,-0.0,12.579935003669213,-37.73980501100764
-12.579935003669213,12.579935003669213,-25.159870007338426,12.579935003669213,-0.0,-0.0,-88.05954502568449,113.21941503302293,100.6394800293537,12.579935003669213,25.159870007338426,-25.159870007338426
-12.579935003669213,-0.0,-12.579935003669213,-0.0,-0.0,-12.579935003669213,-88.05954502568449,100.6394800293537,100.6394800293537,12.579935003669213,37.73980501100764,-12.579935003669213
-25.159870007338426,-0.0,-12.579935003669213,12.579935003669213,-12.579935003669213,-12.579935003669213,-88.05954502568449,88.05954502568449,100.6394800293537,12.579935003669213,37.73980501100764,-12.579935003669213
-37.73980501100764,-0.0,-12.579935003669213,12.579935003669213,-12.579935003669213,-0.0,-88.05954502568449,88.05954502568449,88.05954502568449,25.159870007338426,62.899675018346066,-0.0
-37.73980501100764,-12.579935003669213,-12.579935003669213,12.579935003669213,-0.0,12.579935003669213,-75.47961002201528,75.47961002201528,88.05954502568449,25.159870007338426,75.47961002201528,12.579935003669213
-37.73980501100764,-25.159870007338426,-12.579935003669213,12.579935003669213,-0.0,12.579935003669213,-75.47961002201528,62.899675018346066,75.47961002201528,37.73980501100764,88.05954502568449,25.159870007338426
-25.159870007338426,-37.73980501100764,-12.579935003669213,12.579935003669213,-0.0,12.579935003669213,-62.899675018346066,62.899675018346066,75.47961002201528,62.899675018346066,100.6394800293537,25.159870007338426
-37.73980501100764,-37.73980501100764,-12.579935003669213,12.579935003669213,-0.0,-0.0,-50.31974001467685,62.899675018346066,75.47961002201528,75.47961002201528,88.05954502568449,12.579935003669213
-75.47961002201528,-37.73980501100764,-12.579935003669213,12.579935003669213,-0.0,12.579935003669213,-50.31974001467685,62.899675018346066,75.47961002201528,88.05954502568449,75.47961002201528,12.579935003669213
-125.79935003669213,-25.159870007338426,-0.0,12.579935003669213,-0.0,12.579935003669213,-50.31974001467685,62.899675018346066,75.47961002201528,100.6394800293537,50.31974001467685,-0.0
-163.53915504769978,-25.159870007338426,12.579935003669213,12.579935003669213,-0.0,-0.0,-50.31974001467685,50.31974001467685,75.47961002201528,113.21941503302293,37.73980501100764,-0.0
-138.37928504036134,-25.159870007338426,-0.0,-0.0,-0.0,-0.0,-50.31974001467685,50.31974001467685,75.47961002201528,113.21941503302293,25.159870007338426,-12.579935003669213
-37.73980501100764,-37.73980501100764,-0.0,-0.0,12.579935003669213,-0.0,-50.31974001467685,50.31974001467685,75.47961002201528,88.05954502568449,-0.0,-25.159870007338426
138.37928504036134,-37.73980501100764,-0.0,-0.0,-0.0,12.579935003669213,-50.31974001467685,50.31974001467685,62.899675018346066,62.899675018346066,-12.579935003669213,-50.31974001467685
389.9779851137456,-37.73980501100764,-0.0,12.579935003669213,-0.0,-0.0,-50.31974001467685,50.31974001467685,62.899675018346066,50.31974001467685,-12.579935003669213,-50.31974001467685
628.9967501834607,-75.47961002201528,-12.579935003669213,12.579935003669213,-0.0,-0.0,-37.73980501100764,50.31974001467685,62.899675018346066,25.159870007338426,-12.579935003669213,-50.31974001467685
742.2161652164835,-150.95922004403056,-12.579935003669213,-0.0,-0.0,-0.0,-37.73980501100764,50.31974001467685,62.899675018346066,12.579935003669213,-12.579935003669213,-62.899675018346066
691.8964252018068,-163.53915504769978,50.31974001467685,-0.0,-0.0,-0.0,-12.579935003669213,50.31974001467685,62.899675018346066,-0.0,-12.579935003669213,-62.899675018346066
603.8368801761222,-75.47961002201528,163.53915504769978,-0.0,-0.0,12.579935003669213,50.31974001467685,50.31974001467685,50.31974001467685,-0.0,-25.159870007338426,-62.899675018346066
528.3572701541069,113.21941503302293,276.7585700807227,-0.0,-0.0,12.579935003669213,213.85889506237663,50.31974001467685,50.31974001467685,-0.0,-25.159870007338426,-62.899675018346066
427.71779012475326,427.71779012475326,364.81811510640716,-0.0,-0.0,12.579935003669213,402.5579201174148,50.31974001467685,62.899675018346066,-0.0,-25.159870007338426,-62.899675018346066
327.07831009539956,1069.2944753118832,327.07831009539956,-0.0,-0.0,12.579935003669213,427.71779012475326,50.31974001467685,62.899675018346066,-0.0,-37.73980501100764,-75.47961002201528
239.01876506971504,981.2349302861986,314.49837509173034,-0.0,-0.0,12.579935003669213,327.07831009539956,50.31974001467685,62.899675018346066,-12.579935003669213,-50.31974001467685,-88.05954502568449
163.53915504769978,1069.2944753118832,402.5579201174148,-12.579935003669213,-0.0,12.579935003669213,125.79935003669213,50.31974001467685,50.31974001467685,-12.579935003669213,-50.31974001467685,-88.05954502568449
100.6394800293537,1107.0342803228907,503.19740014676853,-12.579935003669213,-0.0,12.579935003669213,-452.8776601320917,50.31974001467685,50.31974001467685,-12.579935003669213,-37.73980501100764,-75.47961002201528
37.73980501100764,930.9151902715217,515.7773351504377,-12.579935003669213,-0.0,25.159870007338426,-679.3164901981376,50.31974001467685,50.31974001467685,-12.579935003669213,-37.73980501100764,-75.47961002201528
12.579935003669213,1056.7145403082138,427.71779012475326,-12.579935003669213,-0.0,25.159870007338426,-905.7553202641834,50.31974001467685,50.31974001467685,-12.579935003669213,-25.159870007338426,-88.05954502568449
-12.579935003669213,868.0155152531757,301.9184400880611,-12.579935003669213,-0.0,25.159870007338426,-1132.1941503302291,50.31974001467685,50.31974001467685,-12.579935003669213,-37.73980501100764,-125.79935003669213
-12.579935003669213,641.5766851871299,201.2789600587074,-25.159870007338426,12.579935003669213,25.159870007338426,-1358.6329803962751,50.31974001467685,50.31974001467685,-12.579935003669213,-150.95922004403056,-251.59870007338426
-25.159870007338426,440.2977251284225,125.79935003669213,-25.159870007338426,25.159870007338426,25.159870007338426,-1213.963727854079,50.31974001467685,50.31974001467685,-12.579935003669213,-327.07831009539956,-452.8776601320917
-25.159870007338426,301.9184400880611,62.899675018346066,-37.73980501100764,25.159870007338426,12.579935003669213,-1069.2944753118832,50.31974001467685,50.31974001467685,-0.0,-515.7773351504377,-628.9967501834607
-25.159870007338426,163.53915504769978,25.159870007338426,-50.31974001467685,25.159870007338426,12.579935003669213,-717.0562952091451,37.73980501100764,50.31974001467685,12.579935003669213,-654.1566201907991,-729.6362302128143
-25.159870007338426,62.899675018346066,-0.0,-62.899675018346066,25.159870007338426,12.579935003669213,-440.2977251284225,37.73980501100764,50.31974001467685,50.31974001467685,-729.6362302128143,-742.2161652164835
-25.159870007338426,25.159870007338426,-12.579935003669213,-75.47961002201528,25.159870007338426,12.579935003669213,-276.7585700807227,37.73980501100764,50.31974001467685,100.6394800293537,-742.2161652164835,-603.8368801761222
-37.73980501100764,-12.579935003669213,-25.159870007338426,-100.6394800293537,25.159870007338426,37.73980501100764,-163.53915504769978,37.73980501100764,50.31974001467685,150.95922004403056,-603.8368801761222,-289.3385050843919
-37.73980501100764,-37.73980501100764,-12.579935003669213,-113.21941503302293,25.159870007338426,50.31974001467685,-62.899675018346066,37.73980501100764,37.73980501100764,138.37928504036134,-352.23818010273794,100.6394800293537
-37.73980501100764,-37.73980501100764,-12.579935003669213,-125.79935003669213,25.159870007338426,62.899675018346066,12.579935003669213,25.159870007338426,37.73980501100764,62.899675018346066,-12.579935003669213,440.2977251284225
-37.73980501100764,-37.73980501100764,-12.579935003669213,-125.79935003669213,25.159870007338426,88.05954502568449,50.31974001467685,25.159870007338426,37.73980501100764,-75.47961002201528,427.71779012475326,779.9559702274912
-50.31974001467685,-37.73980501100764,-12.579935003669213,-125.79935003669213,25.159870007338426,100.6394800293537,75.47961002201528,25.159870007338426,37.73980501100764,-327.07831009539956,855.4355802495065,1056.7145403082138
-50.31974001467685,-37.73980501100764,-12.579935003669213,-125.79935003669213,25.159870007338426,113.21941503302293,100.6394800293537,12.579935003669213,37.73980501100764,-628.9967501834607,1107.0342803228907,1182.513890344906
-50.31974001467685,-37.73980501100764,-0.0,-113.21941503302293,25.159870007338426,113.21941503302293,100.6394800293537,12.579935003669213,37.73980501100764,-855.4355802495065,1144.7740853338985,1132.1941503302291
-37.73980501100764,-37.73980501100764,-0.0,-88.05954502568449,37.73980501100764,113.21941503302293,113.21941503302293,12.579935003669213,37.73980501100764,-830.2757102421681,1069.2944753118832,981.2349302861986
-37.73980501100764,-37.73980501100764,-0.0,-62.899675018346066,37.73980501100764,100.6394800293537,113.21941503302293,12.579935003669213,25.159870007338426,-503.19740014676853,918.3352552678525,792.5359052311604
-37.73980501100764,-37.73980501100764,-0.0,-50.31974001467685,25.159870007338426,75.47961002201528,113.21941503302293,12.579935003669213,25.159870007338426,-50.31974001467685,717.0562952091451,603.8368801761222
-37.73980501100764,-37.73980501100764,-0.0,-37.73980501100764,12.579935003669213,50.31974001467685,113.21941503302293,12.579935003669213,25.159870007338426,276.7585700807227,503.19740014676853,402.5579201174148
-37.73980501100764,-37.73980501100764,-0.0,-37.73980501100764,-0.0,50.31974001467685,113.21941503302293,12.579935003669213,25.159870007338426,427.71779012475326,352.23818010273794,239.01876506971504
-25.159870007338426,-37.73980501100764,-0.0,-25.159870007338426,-0.0,37.73980501100764,125.79935003669213,12.579935003669213,25.159870007338426,465.45759513576087,213.85889506237663,100.6394800293537
-37.73980501100764,-37.73980501100764,-0.0,-12.579935003669213,-0.0,25.159870007338426,125.79935003669213,-0.0,25.159870007338426,415.13785512108404,125.79935003669213,25.159870007338426
-50.31974001467685,-37.73980501100764,-0.0,-0.0,-0.0,25.159870007338426,125.79935003669213,-0.0,25.159870007338426,301.9184400880611,62.899675018346066,-25.159870007338426
-50.31974001467685,-37.73980501100764,-0.0,-0.0,-0.0,25.159870007338426,138.37928504036134,-0.0,25.159870007338426,176.11909005136897,25.159870007338426,-50.31974001467685
-50.31974001467685,-37.73980501100764,-0.0,12.579935003669213,-0.0,12.579935003669213,138.37928504036134,12.579935003669213,25.159870007338426,113.21941503302293,12.579935003669213,-50.31974001467685
-50.31974001467685,-37.73980501100764,-12.579935003669213,12.579935003669213,-0.0,-0.0,138.37928504036134,12.579935003669213,25.159870007338426,75.47961002201528,12.579935003669213,-50.31974001467685
-50.31974001467685,-37.73980501100764,-12.579935003669213,12.579935003669213,-0.0,-0.0,150.95922004403056,12.579935003669213,12.579935003669213,50.31974001467685,12.579935003669213,-62.899675018346066
-50.31974001467685,-37.73980501100764,-12.579935003669213,12.579935003669213,-0.0,-0.0,150.95922004403056,-0.0,12.579935003669213,25.159870007338426,12.579935003669213,-62.899675018346066
-50.31974001467685,-37.73980501100764,12.579935003669213,12.579935003669213,-0.0,-0.0,150.95922004403056,-0.0,12.579935003669213,12.579935003669213,12.579935003669213,-62.899675018346066
-62.899675018346066,-37.73980501100764,12.579935003669213,12.579935003669213,-0.0,-0.0,150.95922004403056,-0.0,25.159870007338426,12.579935003669213,12.579935003669213,-50.31974001467685
-62.899675018346066,-37.73980501100764,12.579935003669213,12.579935003669213,-0.0,-0.0,150.95922004403056,-0.0,25.159870007338426,12.579935003669213,12.579935003669213,-50.31974001467685
-75.47961002201528,-37.73980501100764,12.579935003669213,25.159870007338426,-0.0,-0.0,163.53915504769978,-0.0,12.579935003669213,-0.0,12.579935003669213,-50.31974001467685
-75.47961002201528,-37.73980501100764,12.579935003669213,50.31974001467685,-12.579935003669213,-0.0,163.53915504769978,-0.0,12.579935003669213,-0.0,-0.0,-62.899675018346066
-88.05954502568449,-37.73980501100764,-0.0,88.05954502568449,-12.579935003669213,-0.0,163.53915504769978,-0.0,12.579935003669213,12.579935003669213,-0.0,-62.899675018346066
-88.05954502568449,-37.73980501100764,-0.0,125.79935003669213,-12.579935003669213,-12.579935003669213,163.53915504769978,-0.0,12.579935003669213,12.579935003669213,-0.0,-62.899675018346066
-88.05954502568449,-37.73980501100764,-0.0,113.21941503302293,-25.159870007338426,-25.159870007338426,163.53915504769978,-0.0,12.579935003669213,12.579935003669213,-0.0,-50.31974001467685
-100.6394800293537,-50.31974001467685,12.579935003669213,25.159870007338426,-62.899675018346066,-62.899675018346066,176.11909005136897,-0.0,12.579935003669213,-0.0,12.579935003669213,-50.31974001467685
-113.21941503302293,-50.31974001467685,25.159870007338426,-138.37928504036134,-125.79935003669213,-113.21941503302293,188.6990250550382,-0.0,12.579935003669213,-0.0,12.579935003669213,-50.31974001467685
-125.79935003669213,-50.31974001467685,25.159870007338426,-415.13785512108404,-138.37928504036134,-75.47961002201528,188.6990250550382,-0.0,12.579935003669213,-0.0,12.579935003669213,-50.31974001467685
-125.79935003669213,-62.899675018346066,25.159870007338426,-729.6362302128143,-125.79935003669213,62.899675018346066,201.2789600587074,-0.0,25.159870007338426,-0.0,-0.0,-50.31974001467685
-138.37928504036134,-62.899675018346066,25.159870007338426,-943.495125275191,-88.05954502568449,276.7585700807227,201.2789600587074,-0.0,12.579935003669213,-0.0,-0.0,-50.31974001467685
-150.95922004403056,-62.899675018346066,25.159870007338426,-993.8148652898678,-100.6394800293537,566.0970751651146,201.2789600587074,-0.0,12.579935003669213,-0.0,-0.0,-50.31974001467685
-163.53915504769978,-75.47961002201528,25.159870007338426,-943.495125275191,-138.37928504036134,868.0155152531757,201.2789600587074,-0.0,12.579935003669213,-0.0,-0.0,-50.31974001467685
-176.11909005136897,-88.05954502568449,12.579935003669213,-868.0155152531757,-138.37928504036134,1044.1346053045447,213.85889506237663,-0.0,12.579935003669213,-0.0,-12.579935003669213,-50.31974001467685
-188.6990250550382,-100.6394800293537,12.579935003669213,-754.7961002201528,-125.79935003669213,1107.0342803228907,213.85889506237663,-0.0,12.579935003669213,-0.0,-12.579935003669213,-50.31974001467685
-213.85889506237663,-113.21941503302293,12.579935003669213,-603.8368801761222,-75.47961002201528,1081.8744103155523,226.43883006604585,-0.0,12.579935003669213,-0.0,-12.579935003669213,-50.31974001467685
-226.43883006604585,-113.21941503302293,12.579935003669213,-440.2977251284225,-37.73980501100764,1031.5546703008754,239.01876506971504,-0.0,12.579935003669213,-0.0,-12.579935003669213,-50.31974001467685
-226.43883006604585,-125.79935003669213,12.579935003669213,-301.9184400880611,-12.579935003669213,893.1753852605142,251.59870007338426,-0.0,12.579935003669213,-0.0,-0.0,-50.31974001467685
-213.85889506237663,-138.37928504036134,25.159870007338426,-213.85889506237663,-0.0,691.8964252018068,251.59870007338426,-0.0,12.579935003669213,-0.0,-0.0,-50.31974001467685
-213.85889506237663,-150.95922004403056,25.159870007338426,-125.79935003669213,12.579935003669213,490.6174651430993,264.17863507705346,-0.0,25.159870007338426,-12.579935003669213,-0.0,-50.31974001467685
-213.85889506237663,-163.53915504769978,25.159870007338426,-75.47961002201528,12.579935003669213,339.6582450990688,264.17863507705346,-0.0,25.159870007338426,-12.579935003669213,-12.579935003669213,-50.31974001467685
-201.2789600587074,-163.53915504769978,37.73980501100764,-37.73980501100764,12.579935003669213,226.43883006604585,264.17863507705346,-0.0,25.159870007338426,-12.579935003669213,-25.159870007338426,-62.899675018346066
-188.6990250550382,-176.11909005136897,37.73980501100764,-12.579935003669213,12.579935003669213,125.79935003669213,276.7585700807227,-0.0,25.159870007338426,-25.159870007338426,-37.73980501100764,-75.47961002201528
-163.53915504769978,-176.11909005136897,50.31974001467685,-0.0,12.579935003669213,62.899675018346066,289.3385050843919,-0.0,25.159870007338426,-25.159870007338426,-50.31974001467685,-75.47961002201528
-150.95922004403056,-163.53915504769978,50.31974001467685,-0.0,12.579935003669213,25.159870007338426,301.9184400880611,-0.0,25.159870007338426,-25.159870007338426,-50.31974001467685,-75.47961002201528
-138.37928504036134,-163.53915504769978,50.31974001467685,-0.0,12.579935003669213,-0.0,314.49837509173034,-0.0,25.159870007338426,-25.159870007338426,-62.899675018346066,-88.05954502568449
-125.79935003669213,-163.53915504769978,50.31974001467685,12.579935003669213,12.579935003669213,-0.0,327.07831009539956,-0.0,25.159870007338426,-37.73980501100764,-75.47961002201528,-100.6394800293537
-113.21941503302293,-163.53915504769978,50.31974001467685,12.579935003669213,12.579935003669213,-0.0,339.6582450990688,12.579935003669213,25.159870007338426,-50.31974001467685,-88.05954502568449,-113.21941503302293
-88.05954502568449,-138.37928504036134,50.31974001467685,12.579935003669213,12.579935003669213,-12.579935003669213,339.6582450990688,25.159870007338426,25.159870007338426,-62.899675018346066,-100.6394800293537,-125.79935003669213
-75.47961002201528,-113.21941503302293,62.899675018346066,12.579935003669213,-0.0,-25.159870007338426,339.6582450990688,37.73980501100764,25.159870007338426,-75.47961002201528,-125.79935003669213,-125.79935003669213
-62.899675018346066,-88.05954502568449,62.899675018346066,12.579935003669213,-0.0,-25.159870007338426,339.6582450990688,50.31974001467685,25.159870007338426,-88.05954502568449,-150.95922004403056,-125.79935003669213
-50.31974001467685,-75.47961002201528,62.899675018346066,12.579935003669213,-0.0,-12.579935003669213,327.07831009539956,62.899675018346066,37.73980501100764,-100.6394800293537,-163.53915504769978,-138.37928504036134
-37.73980501100764,-62.899675018346066,50.31974001467685,12.579935003669213,12.579935003669213,-12.579935003669213,314.49837509173034,75.47961002201528,37.73980501100764,-125.79935003669213,-176.11909005136897,-150.95922004403056
-25.159870007338426,-50.31974001467685,50.31974001467685,-0.0,12.579935003669213,-0.0,301.9184400880611,88.05954502568449,50.31974001467685,-138.37928504036134,-188.6990250550382,-176.11909005136897
-12.579935003669213,-50.31974001467685,37.73980501100764,-0.0,25.159870007338426,-0.0,289.3385050843919,100.6394800293537,62.899675018346066,-150.95922004403056,-213.85889506237663,-176.11909005136897
-0.0,-37.73980501100764,37.73980501100764,12.579935003669213,12.579935003669213,-12.579935003669213,264.17863507705346,88.05954502568449,88.05954502568449,-176.11909005136897,-226.43883006604585,-176.11909005136897
-0.0,-37.73980501100764,37.73980501100764,12.579935003669213,-0.0,-12.579935003669213,251.59870007338426,75.47961002201528,100.6394800293537,-188.6990250550382,-239.01876506971504,-188.6990250550382
-0.0,-25.159870007338426,37.73980501100764,12.579935003669213,-0.0,-12.579935003669213,239.01876506971504,62.899675018346066,113.21941503302293,-226.43883006604585,-264.17863507705346,-201.2789600587074
-0.0,-12.579935003669213,25.159870007338426,-0.0,12.579935003669213,-12.579935003669213,213.85889506237663,37.73980501100764,125.79935003669213,-251.59870007338426,-264.17863507705346,-201.2789600587074
-0.0,-12.579935003669213,25.159870007338426,12.579935003669213,-0.0,-12.579935003669213,188.6990250550382,12.579935003669213,138.37928504036134,-264.17863507705346,-264.17863507705346,-201.2789600587074
-0.0,-0.0,25.159870007338426,12.579935003669213,-0.0,-0.0,150.95922004403056,-0.0,125.79935003669213,-276.7585700807227,-251.59870007338426,-188.6990250550382
-0.0,12.579935003669213,25.159870007338426,12.579935003669213,-0.0,-12.579935003669213,125.79935003669213,-12.579935003669213,100.6394800293537,-301.9184400880611,-251.59870007338426,-176.11909005136897
-0.0,12.579935003669213,25.159870007338426,12.579935003669213,-0.0,-12.579935003669213,100.6394800293537,-25.159870007338426,75.47961002201528,-314.49837509173034,-239.01876506971504,-176.11909005136897
-0.0,12.579935003669213,25.159870007338426,12.579935003669213,-0.0,-12.579935003669213,75.47961002201528,-25.159870007338426,50.31974001467685,-314.49837509173034,-226.43883006604585,-163.53915504769978
-0.0,12.579935003669213,25.159870007338426,25.159870007338426,-0.0,-12.579935003669213,62.899675018346066,-25.159870007338426,37.73980501100764,-314.49837509173034,-201.2789600587074,-150.95922004403056
-0.0,25.159870007338426,25.159870007338426,25.159870007338426,-0.0,-12.579935003669213,50.31974001467685,-25.159870007338426,25.159870007338426,-314.49837509173034,-188.6990250550382,-138.37928504036134
-0.0,25.159870007338426,12.579935003669213,25.159870007338426,-0.0,-12.579935003669213,37.73980501100764,-25.159870007338426,12.579935003669213,-301.9184400880611,-176.11909005136897,-125.79935003669213
-0.0,25.159870007338426,12.579935003669213,25.159870007338426,-0.0,-12.579935003669213,37.73980501100764,-12.579935003669213,-0.0,-276.7585700807227,-163.53915504769978,-125.79935003669213
-0.0,25.159870007338426,12.579935003669213,25.159870007338426,-0.0,-12.579935003669213,37.73980501100764,-12.579935003669213,-0.0,-239.01876506971504,-150.95922004403056,-125.79935003669213
-12.579935003669213,25.159870007338426,25.159870007338426,25.159870007338426,-0.0,-12.579935003669213,37.73980501100764,-12.579935003669213,-0.0,-213.85889506237663,-138.37928504036134,-113.21941503302293
-37.73980501100764,25.159870007338426,25.159870007338426,25.159870007338426,-0.0,-12.579935003669213,37.73980501100764,-12.579935003669213,-0.0,-188.6990250550382,-125.79935003669213,-100.6394800293537
-75.47961002201528,25.159870007338426,25.159870007338426,25.159870007338426,-0.0,-0.0,25.159870007338426,-12.579935003669213,-0.0,-163.53915504769978,-125.79935003669213,-100.6394800293537
-88.05954502568449,25.159870007338426,25.159870007338426,25.159870007338426,-0.0,-0.0,12.579935003669213,-12.579935003669213,-0.0,-150.95922004403056,-113.21941503302293,-100.6394800293537
-88.05954502568449,25.159870007338426,12.579935003669213,37.73980501100764,-0.0,-0.0,12.579935003669213,-12.579935003669213,-0.0,-138.37928504036134,-100.6394800293537,-100.6394800293537
-113.21941503302293,12.579935003669213,-0.0,50.31974001467685,-12.579935003669213,-0.0,12.579935003669213,-12.579935003669213,-0.0,-125.79935003669213,-88.05954502568449,-88.05954502568449
-176.11909005136897,12.579935003669213,-0.0,62.899675018346066,-12.579935003669213,-12.579935003669213,12.579935003669213,-12.579935003669213,-0.0,-100.6394800293537,-75.47961002201528,-75.47961002201528
-251.59870007338426,-0.0,12.579935003669213,62.899675018346066,-12.579935003669213,-25.159870007338426,12.579935003669213,-0.0,-0.0,-88.05954502568449,-62.899675018346066,-75.47961002201528
-364.81811510640716,-25.159870007338426,25.159870007338426,62.899675018346066,-12.579935003669213,-25.159870007338426,12.579935003669213,62.899675018346066,-0.0,-75.47961002201528,-62.899675018346066,-75.47961002201528
-503.19740014676853,-50.31974001467685,12.579935003669213,62.899675018346066,-25.159870007338426,-25.159870007338426,25.159870007338426,188.6990250550382,-0.0,-62.899675018346066,-62.899675018346066,-62.899675018346066
-641.5766851871299,-75.47961002201528,-12.579935003669213,75.47961002201528,-25.159870007338426,-25.159870007338426,12.579935003669213,415.13785512108404,-0.0,-37.73980501100764,-50.31974001467685,-62.899675018346066
-792.5359052311604,-100.6394800293537,-50.31974001467685,88.05954502568449,-37.73980501100764,-37.73980501100764,12.579935003669213,528.3572701541069,12.579935003669213,-25.159870007338426,-50.31974001467685,-62.899675018346066
-905.7553202641834,-176.11909005136897,-88.05954502568449,100.6394800293537,-50.31974001467685,-37.73980501100764,25.159870007338426,314.49837509173034,75.47961002201528,-25.159870007338426,-50.31974001467685,-62.899675018346066
-1018.9747352972063,-264.17863507705346,-138.37928504036134,113.21941503302293,-50.31974001467685,-37.73980501100764,25.159870007338426,12.579935003669213,201.2789600587074,-25.159870007338426,-50.31974001467685,-62.899675018346066
-1107.0342803228907,-377.3980501100764,-113.21941503302293,125.79935003669213,-50.31974001467685,-50.31974001467685,25.159870007338426,-515.7773351504377,377.3980501100764,-12.579935003669213,-50.31974001467685,-62.899675018346066
-1157.3540203375676,-478.0375301394301,-25.159870007338426,138.37928504036134,-62.899675018346066,-50.31974001467685,12.579935003669213,-1396.3727854072827,440.2977251284225,-12.579935003669213,-50.31974001467685,-62.899675018346066
-1144.7740853338985,-528.3572701541069,50.31974001467685,138.37928504036134,-75.47961002201528,-50.31974001467685,12.579935003669213,-2239.22843065312,226.43883006604585,-0.0,-50.31974001467685,-62.899675018346066
-1081.8744103155523,-578.6770101687838,125.79935003669213,150.95922004403056,-88.05954502568449,-62.899675018346066,12.579935003669213,-2566.3067407485196,-100.6394800293537,-0.0,-50.31974001467685,-62.899675018346066
-1044.1346053045447,-654.1566201907991,188.6990250550382,163.53915504769978,-88.05954502568449,-62.899675018346066,25.159870007338426,-2239.22843065312,-641.5766851871299,-0.0,-50.31974001467685,-62.899675018346066
-993.8148652898678,-704.4763602054759,213.85889506237663,163.53915504769978,-88.05954502568449,-50.31974001467685,113.21941503302293,-1660.5514204843362,918.3352552678525,-0.0,-50.31974001467685,-62.899675018346066
-893.1753852605142,-792.5359052311604,138.37928504036134,150.95922004403056,-100.6394800293537,-50.31974001467685,239.01876506971504,-1119.61421532656,201.2789600587074,-0.0,-50.31974001467685,-62.899675018346066
-779.9559702274912,-772.093510850198,-25.159870007338426,138.37928504036134,-100.6394800293537,-50.31974001467685,440.2977251284225,-717.0562952091451,-125.79935003669213,-0.0,-37.73980501100764,-62.899675018346066
-666.7365551944683,-751.6511164692355,415.13785512108404,125.79935003669213,-100.6394800293537,-50.31974001467685,616.4168151797915,-415.13785512108404,201.2789600587074,-0.0,-37.73980501100764,-62.899675018346066
-566.0970751651146,-731.208722088273,704.4763602054759,113.21941503302293,-88.05954502568449,-50.31974001467685,611.7821022837028,-213.85889506237663,-1157.3540203375676,-0.0,-50.31974001467685,-75.47961002201528
-490.6174651430993,-710.7663277073106,868.0155152531757,113.21941503302293,-88.05954502568449,-37.73980501100764,607.1473893876141,-100.6394800293537,-616.4168151797915,-0.0,-50.31974001467685,-75.47961002201528
-452.8776601320917,-690.3239333263481,842.8556452458373,100.6394800293537,-88.05954502568449,-25.159870007338426,602.5126764915254,-12.579935003669213,-276.7585700807227,-0.0,-50.31974001467685,-75.47961002201528
-465.45759513576087,-669.8815389453856,691.8964252018068,75.47961002201528,-75.47961002201528,-25.159870007338426,597.8779635954369,37.73980501100764,-62.899675018346066,-0.0,-50.31974001467685,-62.899675018346066
-490.6174651430993,-649.4391445644231,327.07831009539956,50.31974001467685,-75.47961002201528,-12.579935003669213,593.2432506993481,75.47961002201528,62.899675018346066,-0.0,-50.31974001467685,-62.899675018346066
-465.45759513576087,-628.9967501834607,276.7585700807227,37.73980501100764,-62.899675018346066,-0.0,588.6085378032595,113.21941503302293,75.47961002201528,-12.579935003669213,-50.31974001467685,-62.899675018346066
-364.81811510640716,-377.3980501100764,327.07831009539956,37.73980501100764,-50.31974001467685,12.579935003669213,583.9738249071709,125.79935003669213,75.47961002201528,-12.579935003669213,-50.31974001467685,-62.899675018346066
-213.85889506237663,-226.43883006604585,289.3385050843919,25.159870007338426,-25.159870007338426,25.159870007338426,579.3391120110822,138.37928504036134,75.47961002201528,-12.579935003669213,-50.31974001467685,-75.47961002201528
-75.47961002201528,-188.6990250550382,239.01876506971504,12.579935003669213,-12.579935003669213,25.159870007338426,574.7043991149935,138.37928504036134,88.05954502568449,-0.0,-50.31974001467685,-88.05954502568449
12.579935003669213,-213.85889506237663,201.2789600587074,-0.0,-12.579935003669213,25.159870007338426,570.0696862189048,138.37928504036134,88.05954502568449,-0.0,-50.31974001467685,-88.05954502568449
62.899675018346066,-264.17863507705346,176.11909005136897,-0.0,-12.579935003669213,25.159870007338426,565.4349733228162,150.95922004403056,100.6394800293537,-0.0,-50.31974001467685,-75.47961002201528
75.47961002201528,-301.9184400880611,100.6394800293537,-0.0,-12.579935003669213,25.159870007338426,560.8002604267276,150.95922004403056,88.05954502568449,-12.579935003669213,-50.31974001467685,-62.899675018346066
88.05954502568449,-364.81811510640716,-12.579935003669213,-12.579935003669213,-0.0,25.159870007338426,556.1655475306388,150.95922004403056,88.05954502568449,-25.159870007338426,-37.73980501100764,-62.899675018346066
113.21941503302293,-364.81811510640716,-113.21941503302293,-25.159870007338426,-0.0,37.73980501100764,551.5308346345502,150.95922004403056,88.05954502568449,-25.159870007338426,-37.73980501100764,-62.899675018346066
138.37928504036134,-314.49837509173034,-138.37928504036134,-25.159870007338426,-0.0,37.73980501100764,546.8961217384616,163.53915504769978,100.6394800293537,-25.159870007338426,-37.73980501100764,-62.899675018346066
163.53915504769978,-201.2789600587074,-88.05954502568449,-25.159870007338426,-0.0,37.73980501100764,542.2614088423729,176.11909005136897,100.6394800293537,-25.159870007338426,-37.73980501100764,-62.899675018346066
176.11909005136897,-75.47961002201528,-62.899675018346066,-25.159870007338426,-0.0,50.31974001467685,537.6266959462843,176.11909005136897,100.6394800293537,-25.159870007338426,-50.31974001467685,-62.899675018346066
188.6990250550382,-12.579935003669213,-62.899675018346066,-25.159870007338426,-0.0,50.31974001467685,532.9919830501956,176.11909005136897,113.21941503302293,-25.159870007338426,-50.31974001467685,-62.899675018346066
201.2789600587074,12.579935003669213,-62.899675018346066,-37.73980501100764,-0.0,50.31974001467685,528.3572701541069,188.6990250550382,113.21941503302293,-12.579935003669213,-50.31974001467685,-62.899675018346066
201.2789600587074,25.159870007338426,-62.899675018346066,-37.73980501100764,-0.0,50.31974001467685,251.59870007338426,188.6990250550382,113.21941503302293,-12.579935003669213,-50.31974001467685,-62.899675018346066
201.2789600587074,50.31974001467685,-50.31974001467685,-37.73980501100764,-0.0,50.31974001467685,50.31974001467685,188.6990250550382,125.79935003669213,-12.579935003669213,-50.31974001467685,-62.899675018346066
201.2789600587074,88.05954502568449,-37.73980501100764,-37.73980501100764,-0.0,50.31974001467685,-50.31974001467685,201.2789600587074,125.79935003669213,-12.579935003669213,-50.31974001467685,-62.899675018346066
201.2789600587074,125.79935003669213,-12.579935003669213,-37.73980501100764,-0.0,50.31974001467685,-88.05954502568449,201.2789600587074,125.79935003669213,-12.579935003669213,-50.31974001467685,-62.899675018346066
201.2789600587074,163.53915504769978,-0.0,-37.73980501100764,-0.0,50.31974001467685,-125.79935003669213,201.2789600587074,125.79935003669213,-25.159870007338426,-50.31974001467685,-62.899675018346066
213.85889506237663,201.2789600587074,12.579935003669213,-37.73980501100764,-0.0,50.31974001467685,-163.53915504769978,213.85889506237663,125.79935003669213,-25.159870007338426,-50.31974001467685,-62.899675018346066
226.43883006604585,226.43883006604585,25.159870007338426,-37.73980501100764,-0.0,50.31974001467685,-188.6990250550382,213.85889506237663,125.79935003669213,-25.159870007338426,-37.73980501100764,-62.899675018346066
239.01876506971504,239.01876506971504,37.73980501100764,-37.73980501100764,-0.0,50.31974001467685,-226.43883006604585,213.85889506237663,125.79935003669213,-25.159870007338426,-37.73980501100764,-62.899675018346066
251.59870007338426,239.01876506971504,37.73980501100764,-37.73980501100764,-0.0,50.31974001467685,-251.59870007338426,213.85889506237663,125.79935003669213,-25.159870007338426,-37.73980501100764,-50.31974001467685
264.17863507705346,251.59870007338426,37.73980501100764,-37.73980501100764,-0.0,50.31974001467685,-276.7585700807227,213.85889506237663,125.79935003669213,-25.159870007338426,-37.73980501100764,-50.31974001467685
276.7585700807227,251.59870007338426,50.31974001467685,-37.73980501100764,-0.0,50.31974001467685,-289.3385050843919,226.43883006604585,125.79935003669213,-25.159870007338426,-37.73980501100764,-50.31974001467685
289.3385050843919,264.17863507705346,62.899675018346066,-25.159870007338426,-0.0,50.31974001467685,-314.49837509173034,226.43883006604585,125.79935003669213,-25.159870007338426,-37.73980501100764,-50.31974001467685
327.07831009539956,289.3385050843919,62.899675018346066,-25.159870007338426,-0.0,50.31974001467685,-339.6582450990688,239.01876506971504,125.79935003669213,-25.159870007338426,-37.73980501100764,-50.31974001467685
339.6582450990688,314.49837509173034,75.47961002201528,-25.159870007338426,-0.0,50.31974001467685,-364.81811510640716,239.01876506971504,138.37928504036134,-25.159870007338426,-37.73980501100764,-62.899675018346066
327.07831009539956,327.07831009539956,75.47961002201528,-25.159870007338426,-0.0,37.73980501100764,-377.3980501100764,239.01876506971504,138.37928504036134,-25.159870007338426,-37.73980501100764,-62.899675018346066
352.23818010273794,327.07831009539956,75.47961002201528,-25.159870007338426,-0.0,37.73980501100764,-389.9779851137456,239.01876506971504,138.37928504036134,-25.159870007338426,-37.73980501100764,-62.899675018346066
377.3980501100764,352.23818010273794,88.05954502568449,-25.159870007338426,-0.0,25.159870007338426,-402.5579201174148,239.01876506971504,138.37928504036134,-25.159870007338426,-37.73980501100764,-62.899675018346066
402.5579201174148,364.81811510640716,100.6394800293537,-37.73980501100764,-0.0,25.159870007338426,-415.13785512108404,239.01876506971504,138.37928504036134,-25.159870007338426,-37.73980501100764,-62.899675018346066
415.13785512108404,389.9779851137456,88.05954502568449,-37.73980501100764,-0.0,25.159870007338426,-427.71779012475326,239.01876506971504,138.37928504036134,-25.159870007338426,-50.31974001467685,-62.899675018346066
440.2977251284225,415.13785512108404,100.6394800293537,-25.159870007338426,-0.0,25.159870007338426,-452.8776601320917,239.01876506971504,125.79935003669213,-25.159870007338426,-50.31974001467685,-62.899675018346066
465.45759513576087,440.2977251284225,125.79935003669213,-25.159870007338426,-0.0,37.73980501100764,-465.45759513576087,239.01876506971504,125.79935003669213,-25.159870007338426,-50.31974001467685,-50.31974001467685
490.6174651430993,465.45759513576087,138.37928504036134,-25.159870007338426,-0.0,37.73980501100764,-490.6174651430993,239.01876506971504,113.21941503302293,-25.159870007338426,-50.31974001467685,-50.31974001467685
503.19740014676853,503.19740014676853,150.95922004403056,-25.159870007338426,-0.0,25.159870007338426,-515.7773351504377,226.43883006604585,113.21941503302293,-25.159870007338426,-50.31974001467685,-62.899675018346066
515.7773351504377,528.3572701541069,150.95922004403056,-25.159870007338426,-0.0,25.159870007338426,-540.9372051577761,226.43883006604585,100.6394800293537,-25.159870007338426,-50.31974001467685,-62.899675018346066
528.3572701541069,553.5171401614454,150.95922004403056,-25.159870007338426,-0.0,25.159870007338426,-566.0970751651146,226.43883006604585,88.05954502568449,-25.159870007338426,-50.31974001467685,-62.899675018346066
540.9372051577761,591.256945172453,176.11909005136897,-25.159870007338426,-0.0,25.159870007338426,-603.8368801761222,226.43883006604585,75.47961002201528,-25.159870007338426,-50.31974001467685,-50.31974001467685
540.9372051577761,641.5766851871299,201.2789600587074,-25.159870007338426,-0.0,25.159870007338426,-628.9967501834607,213.85889506237663,62.899675018346066,-25.159870007338426,-50.31974001467685,-50.31974001467685
540.9372051577761,666.7365551944683,226.43883006604585,-25.159870007338426,-0.0,37.73980501100764,-666.7365551944683,213.85889506237663,50.31974001467685,-25.159870007338426,-37.73980501100764,-50.31974001467685
528.3572701541069,704.4763602054759,239.01876506971504,-25.159870007338426,-0.0,50.31974001467685,-704.4763602054759,213.85889506237663,37.73980501100764,-25.159870007338426,-37.73980501100764,-50.31974001467685
515.7773351504377,742.2161652164835,264.17863507705346,-25.159870007338426,-0.0,37.73980501100764,-742.2161652164835,213.85889506237663,25.159870007338426,-25.159870007338426,-37.73980501100764,-50.31974001467685
490.6174651430993,792.5359052311604,289.3385050843919,-25.159870007338426,-0.0,25.159870007338426,-792.5359052311604,213.85889506237663,12.579935003669213,-25.159870007338426,-37.73980501100764,-50.31974001467685
478.0375301394301,830.2757102421681,314.49837509173034,-25.159870007338426,-0.0,25.159870007338426,-830.2757102421681,213.85889506237663,-0.0,-25.159870007338426,-37.73980501100764,-50.31974001467685
452.8776601320917,855.4355802495065,339.6582450990688,-25.159870007338426,-0.0,25.159870007338426,-893.1753852605142,213.85889506237663,-12.579935003669213,-25.159870007338426,-37.73980501100764,-50.31974001467685
440.2977251284225,880.595450256845,364.81811510640716,-25.159870007338426,-0.0,37.73980501100764,-943.495125275191,213.85889506237663,-12.579935003669213,-25.159870007338426,-37.73980501100764,-62.899675018346066
415.13785512108404,918.3352552678525,389.9779851137456,-25.159870007338426,-0.0,50.31974001467685,-993.8148652898678,213.85889506237663,-12.579935003669213,-25.159870007338426,-37.73980501100764,-62.899675018346066
389.9779851137456,930.9151902715217,415.13785512108404,-25.159870007338426,-0.0,50.31974001467685,-1031.5546703008754,213.85889506237663,-12.579935003669213,-25.159870007338426,-50.31974001467685,-62.899675018346066
352.23818010273794,943.495125275191,427.71779012475326,-25.159870007338426,-0.0,37.73980501100764,-1094.4543453192216,213.85889506237663,-25.159870007338426,-25.159870007338426,-50.31974001467685,-62.899675018346066
327.07831009539956,930.9151902715217,440.2977251284225,-25.159870007338426,-0.0,37.73980501100764,-1144.7740853338985,213.85889506237663,-25.159870007338426,-25.159870007338426,-50.31974001467685,-50.31974001467685
301.9184400880611,918.3352552678525,427.71779012475326,-25.159870007338426,-0.0,25.159870007338426,-1207.6737603522445,213.85889506237663,-12.579935003669213,-37.73980501100764,-50.31974001467685,-50.31974001467685
251.59870007338426,905.7553202641834,427.71779012475326,-25.159870007338426,12.579935003669213,25.159870007338426,-1245.413565363252,213.85889506237663,-12.579935003669213,-37.73980501100764,-37.73980501100764,-50.31974001467685
226.43883006604585,880.595450256845,415.13785512108404,-25.159870007338426,-0.0,25.159870007338426,-1283.1533703742598,201.2789600587074,-0.0,-37.73980501100764,-37.73980501100764,-50.31974001467685
188.6990250550382,842.8556452458373,389.9779851137456,-25.159870007338426,-0.0,37.73980501100764,-1320.8931753852673,188.6990250550382,25.159870007338426,-37.73980501100764,-37.73980501100764,-50.31974001467685
150.95922004403056,805.1158402348296,352.23818010273794,-25.159870007338426,-0.0,37.73980501100764,-1346.0530453926058,176.11909005136897,37.73980501100764,-37.73980501100764,-50.31974001467685,-62.899675018346066
0.0,729.6362302128143,314.49837509173034,-25.159870007338426,12.579935003669213,37.73980501100764,-1358.6329803962751,163.53915504769978,50.31974001467685,-37.73980501100764,-50.31974001467685,-62.899675018346066
0.0,654.1566201907991,264.17863507705346,-25.159870007338426,-0.0,37.73980501100764,-1358.6329803962751,150.95922004403056,75.47961002201528,-25.159870007338426,-50.31974001467685,-62.899675018346066
0.0,578.6770101687838,226.43883006604585,-25.159870007338426,-0.0,37.73980501100764,-1346.0530453926058,125.79935003669213,88.05954502568449,-25.159870007338426,-37.73980501100764,-62.899675018346066
0.0,490.6174651430993,176.11909005136897,-25.159870007338426,-0.0,25.159870007338426,-1320.8931753852673,113.21941503302293,88.05954502568449,-37.73980501100764,-25.159870007338426,-50.31974001467685
0.0,415.13785512108404,138.37928504036134,-25.159870007338426,-0.0,25.159870007338426,-1283.1533703742598,100.6394800293537,88.05954502568449,-37.73980501100764,-25.159870007338426,-50.31974001467685
0.0,352.23818010273794,113.21941503302293,-25.159870007338426,-0.0,37.73980501100764,-1232.833630359583,88.05954502568449,88.05954502568449,-37.73980501100764,-25.159870007338426,-50.31974001467685
0.0,276.7585700807227,0.0,-37.73980501100764,0.0,0.0,-1169.933955341237,88.05954502568449,0.0,-37.73980501100764,-25.159870007338426,-50.31974001467685
0.0,213.85889506237663,0.0,-37.73980501100764,0.0,0.0,-1081.8744103155523,75.47961002201528,0.0,-25.159870007338426,0.0,-50.31974001467685
0.0,163.53915504769978,0.0,0.0,0.0,0.0,-993.8148652898678,0.0,0.0,-25.159870007338426,0.0,-37.73980501100764
0.0,113.21941503302293,0.0,0.0,0.0,0.0,-880.595450256845,0.0,0.0,0.0,0.0,0.0
0.0,88.05954502568449,0.0,0.0,0.0,0.0,-767.376035223822,0.0,0.0,0.0,0.0,0.0
0.0,50.31974001467685,0.0,0.0,0.0,0.0,-654.1566201907991,0.0,0.0,0.0,0.0,0.0
0.0,37.73980501100764,0.0,0.0,0.0,0.0,-566.0970751651146,0.0,0.0,0.0,0.0,0.0
0.0,37.73980501100764,0.0,0.0,0.0,0.0,-465.45759513576087,0.0,0.0,0.0,0.0,0.0
0.0,25.159870007338426,0.0,0.0,0.0,0.0,-389.9779851137456,0.0,0.0,0.0,0.0,0.0
0.0,25.159870007338426,0.0,0.0,0.0,0.0,-301.9184400880611,0.0,0.0,0.0,0.0,0.0
0.0,25.159870007338426,0.0,0.0,0.0,0.0,-251.59870007338426,0.0,0.0,0.0,0.0,0.0
0.0,12.579935003669213,0.0,0.0,0.0,0.0,-188.6990250550382,0.0,0.0,0.0,0.0,0.0
0.0,12.579935003669213,0.0,0.0,0.0,0.0,-150.95922004403056,0.0,0.0,0.0,0.0,0.0
0.0,12.579935003669213,0.0,0.0,0.0,0.0,-100.6394800293537,0.0,0.0,0.0,0.0,0.0
0.0,12.579935003669213,0.0,0.0,0.0,0.0,-62.899675018346066,0.0,0.0,0.0,0.0,0.0
0.0,25.159870007338426,0.0,0.0,0.0,0.0,-37.73980501100764,0.0,0.0,0.0,0.0,0.0
0.0,25.159870007338426,0.0,0.0,0.0,0.0,-12.579935003669213,0.0,0.0,0.0,0.0,0.0
0.0,12.579935003669213,0.0,0.0,0.0,0.0,-0.0,0.0,0.0,0.0,0.0,0.0
0.0,12.579935003669213,0.0,0.0,0.0,0.0,12.579935003669213,0.0,0.0,0.0,0.0,0.0
0.0,12.579935003669213,0.0,0.0,0.0,0.0,12.579935003669213,0.0,0.0,0.0,0.0,0.0
0.0,12.579935003669213,0.0,0.0,0.0,0.0,12.579935003669213,0.0,0.0,0.0,0.0,0.0
0.0,12.579935003669213,0.0,0.0,0.0,0.0,25.159870007338426,0.0,0.0,0.0,0.0,0.0
0.0,-0.0,0.0,0.0,0.0,0.0,25.159870007338426,0.0,0.0,0.0,0.0,0.0
0.0,-0.0,0.0,0.0,0.0,0.0,25.159870007338426,0.0,0.0,0.0,0.0,0.0
0.0,-0.0,0.0,0.0,0.0,0.0,25.159870007338426,0.0,0.0,0.0,0.0,0.0
0.0,-0.0,0.0,0.0,0.0,0.0,25.159870007338426,0.0,0.0,0.0,0.0,0.0
0.0,-12.579935003669213,0.0,0.0,0.0,0.0,25.159870007338426,0.0,0.0,0.0,0.0,0.0
0.0,-12.579935003669213,0.0,0.0,0.0,0.0,12.579935003669213,0.0,0.0,0.0,0.0,0.0
0.0,-12.579935003669213,0.0,0.0,0.0,0.0,12.579935003669213,0.0,0.0,0.0,0.0,0.0
0.0,-12.579935003669213,0.0,0.0,0.0,0.0,12.579935003669213,0.0,0.0,0.0,0.0,0.0
0.0,-12.579935003669213,0.0,0.0,0.0,0.0,12.579935003669213,0.0,0.0,0.0,0.0,0.0
0.0,-12.579935003669213,0.0,0.0,0.0,0.0,12.579935003669213,0.0,0.0,0.0,0.0,0.0
0.0,-12.579935003669213,0.0,0.0,0.0,0.0,12.579935003669213,0.0,0.0,0.0,0.0,0.0
0.0,-12.579935003669213,0.0,0.0,0.0,0.0,12.579935003669213,0.0,0.0,0.0,0.0,0.0
0.0,-25.159870007338426,0.0,0.0,0.0,0.0,12.579935003669213,0.0,0.0,0.0,0.0,0.0
0.0,-25.159870007338426,0.0,0.0,0.0,0.0,12.579935003669213,0.0,0.0,0.0,0.0,0.0
0.0,-25.159870007338426,0.0,0.0,0.0,0.0,12.579935003669213,0.0,0.0,0.0,0.0,0.0
0.0,-12.579935003669213,0.0,0.0,0.0,0.0,12.579935003669213,0.0,0.0,0.0,0.0,0.0
0.0,-12.579935003669213,0.0,0.0,0.0,0.0,12.579935003669213,0.0,0.0,0.0,0.0,0.0
0.0,-12.579935003669213,0.0,0.0,0.0,0.0,12.579935003669213,0.0,0.0,0.0,0.0,0.0
0.0,-25.159870007338426,0.0,0.0,0.0,0.0,12.579935003669213,0.0,0.0,0.0,0.0,0.0
0.0,-25.159870007338426,0.0,0.0,0.0,0.0,12.579935003669213,0.0,0.0,0.0,0.0,0.0
0.0,-25.159870007338426,0.0,0.0,0.0,0.0,12.579935003669213,0.0,0.0,0.0,0.0,0.0
0.0,-25.159870007338426,0.0,0.0,0.0,0.0,12.579935003669213,0.0,0.0,0.0,0.0,0.0
0.0,-25.159870007338426,0.0,0.0,0.0,0.0,12.579935003669213,0.0,0.0,0.0,0.0,0.0
0.0,-25.159870007338426,0.0,0.0,0.0,0.0,12.579935003669213,0.0,0.0,0.0,0.0,0.0
0.0,-25.159870007338426,0.0,0.0,0.0,0.0,12.579935003669213,0.0,0.0,0.0,0.0,0.0
0.0,-25.159870007338426,0.0,0.0,0.0,0.0,12.579935003669213,0.0,0.0,0.0,0.0,0.0
0.0,-25.159870007338426,0.0,0.0,0.0,0.0,12.579935003669213,0.0,0.0,0.0,0.0,0.0
0.0,-25.159870007338426,0.0,0.0,0.0,0.0,12.579935003669213,0.0,0.0,0.0,0.0,0.0
0.0,-25.159870007338426,0.0,0.0,0.0,0.0,12.579935003669213,0.0,0.0,0.0,0.0,0.0
0.0,-25.159870007338426,0.0,0.0,0.0,0.0,12.579935003669213,0.0,0.0,0.0,0.0,0.0
0.0,-25.159870007338426,0.0,0.0,0.0,0.0,12.579935003669213,0.0,0.0,0.0,0.0,0.0
0.0,-25.159870007338426,0.0,0.0,0.0,0.0,12.579935003669213,0.0,0.0,0.0,0.0,0.0
0.0,-25.159870007338426,0.0,0.0,0.0,0.0,12.579935003669213,0.0,0.0,0.0,0.0,0.0
0.0,-25.159870007338426,0.0,0.0,0.0,0.0,12.579935003669213,0.0,0.0,0.0,0.0,0.0
0.0,-25.159870007338426,0.0,0.0,0.0,0.0,12.579935003669213,0.0,0.0,0.0,0.0,0.0
0.0,-25.159870007338426,0.0,0.0,0.0,0.0,12.579935003669213,0.0,0.0,0.0,0.0,0.0
0.0,-25.159870007338426,0.0,0.0,0.0,0.0,12.579935003669213,0.0,0.0,0.0,0.0,0.0
0.0,-25.159870007338426,0.0,0.0,0.0,0.0,12.579935003669213,0.0,0.0,0.0,0.0,0.0
0.0,-25.159870007338426,0.0,0.0,0.0,0.0,12.579935003669213,0.0,0.0,0.0,0.0,0.0
0.0,-25.159870007338426,0.0,0.0,0.0,0.0,12.579935003669213,0.0,0.0,0.0,0.0,0.0
0.0,-25.159870007338426,0.0,0.0,0.0,0.0,12.579935003669213,0.0,0.0,0.0,0.0,0.0
0.0,-25.159870007338426,0.0,0.0,0.0,0.0,12.579935003669213,0.0,0.0,0.0,0.0,0.0
0.0,-25.159870007338426,0.0,0.0,0.0,0.0,12.579935003669213,0.0,0.0,0.0,0.0,0.0
0.0,-25.159870007338426,0.0,0.0,0.0,0.0,-0.0,0.0,0.0,0.0,0.0,0.0
0.0,-37.73980501100764,0.0,0.0,0.0,0.0,-0.0,0.0,0.0,0.0,0.0,0.0
0.0,-37.73980501100764,0.0,0.0,0.0,0.0,12.579935003669213,0.0,0.0,0.0,0.0,0.0
0.0,-37.73980501100764,0.0,0.0,0.0,0.0,12.579935003669213,0.0,0.0,0.0,0.0,0.0
0.0,-37.73980501100764,0.0,0.0,0.0,0.0,12.579935003669213,0.0,0.0,0.0,0.0,0.0
0.0,-37.73980501100764,0.0,0.0,0.0,0.0,12.579935003669213,0.0,0.0,0.0,0.0,0.0
0.0,-37.73980501100764,0.0,0.0,0.0,0.0,12.579935003669213,0.0,0.0,0.0,0.0,0.0
0.0,-37.73980501100764,0.0,0.0,0.0,0.0,12.579935003669213,0.0,0.0,0.0,0.0,0.0
0.0,-37.73980501100764,0.0,0.0,0.0,0.0,12.579935003669213,0.0,0.0,0.0,0.0,0.0
0.0,-37.73980501100764,0.0,0.0,0.0,0.0,12.579935003669213,0.0,0.0,0.0,0.0,0.0
0.0,-37.73980501100764,0.0,0.0,0.0,0.0,12.579935003669213,0.0,0.0,0.0,0.0,0.0
0.0,-37.73980501100764,0.0,0.0,0.0,0.0,12.579935003669213,0.0,0.0,0.0,0.0,0.0
0.0,-25.159870007338426,0.0,0.0,0.0,0.0,-0.0,0.0,0.0,0.0,0.0,0.0
0.0,-25.159870007338426,0.0,0.0,0.0,0.0,-0.0,0.0,0.0,0.0,0.0,0.0
0.0,-25.159870007338426,0.0,0.0,0.0,0.0,-0.0,0.0,0.0,0.0,0.0,0.0
0.0,-25.159870007338426,0.0,0.0,0.0,0.0,-0.0,0.0,0.0,0.0,0.0,0.0
0.0,-25.159870007338426,0.0,0.0,0.0,0.0,-0.0,0.0,0.0,0.0,0.0,0.0
0.0,-25.159870007338426,0.0,0.0,0.0,0.0,-0.0,0.0,0.0,0.0,0.0,0.0
0.0,-25.159870007338426,0.0,0.0,0.0,0.0,-0.0,0.0,0.0,0.0,0.0,0.0
0.0,-37.73980501100764,0.0,0.0,0.0,0.0,-0.0,0.0,0.0,0.0,0.0,0.0
0.0,-37.73980501100764,0.0,0.0,0.0,0.0,-0.0,0.0,0.0,0.0,0.0,0.0
0.0,-37.73980501100764,0.0,0.0,0.0,0.0,-0.0,0.0,0.0,0.0,0.0,0.0
0.0,-37.73980501100764,0.0,0.0,0.0,0.0,-0.0,0.0,0.0,0.0,0.0,0.0
0.0,-37.73980501100764,0.0,0.0,0.0,0.0,-0.0,0.0,0.0,0.0,0.0,0.0
0.0,-37.73980501100764,0.0,0.0,0.0,0.0,-0.0,0.0,0.0,0.0,0.0,0.0
0.0,-37.73980501100764,0.0,0.0,0.0,0.0,-0.0,0.0,0.0,0.0,0.0,0.0
0.0,-37.73980501100764,0.0,0.0,0.0,0.0,-0.0,0.0,0.0,0.0,0.0,0.0
0.0,-25.159870007338426,0.0,0.0,0.0,0.0,-0.0,0.0,0.0,0.0,0.0,0.0
0.0,-25.159870007338426,0.0,0.0,0.0,0.0,-0.0,0.0,0.0,0.0,0.0,0.0
0.0,-25.159870007338426,0.0,0.0,0.0,0.0,-0.0,0.0,0.0,0.0,0.0,0.0
0.0,-25.159870007338426,0.0,0.0,0.0,0.0,-0.0,0.0,0.0,0.0,0.0,0.0
0.0,-25.159870007338426,0.0,0.0,0.0,0.0,-0.0,0.0,0.0,0.0,0.0,0.0
0.0,-25.159870007338426,0.0,0.0,0.0,0.0,-0.0,0.0,0.0,0.0,0.0,0.0
0.0,-25.159870007338426,0.0,0.0,0.0,0.0,-0.0,0.0,0.0,0.0,0.0,0.0
0.0,-25.159870007338426,0.0,0.0,0.0,0.0,-0.0,0.0,0.0,0.0,0.0,0.0
0.0,-25.159870007338426,0.0,0.0,0.0,0.0,-0.0,0.0,0.0,0.0,0.0,0.0
0.0,-25.159870007338426,0.0,0.0,0.0,0.0,-0.0,0.0,0.0,0.0,0.0,0.0
0.0,-25.159870007338426,0.0,0.0,0.0,0.0,-0.0,0.0,0.0,0.0,0.0,0.0
0.0,-25.159870007338426,0.0,0.0,0.0,0.0,-0.0,0.0,0.0,0.0,0.0,0.0
0.0,-25.159870007338426,0.0,0.0,0.0,0.0,-0.0,0.0,0.0,0.0,0.0,0.0
0.0,-25.159870007338426,0.0,0.0,0.0,0.0,-0.0,0.0,0.0,0.0,0.0,0.0
0.0,-25.159870007338426,0.0,0.0,0.0,0.0,-0.0,0.0,0.0,0.0,0.0,0.0
0.0,-25.159870007338426,0.0,0.0,0.0,0.0,-0.0,0.0,0.0,0.0,0.0,0.0
0.0,-25.159870007338426,0.0,0.0,0.0,0.0,-0.0,0.0,0.0,0.0,0.0,0.0
0.0,-25.159870007338426,0.0,0.0,0.0,0.0,-0.0,0.0,0.0,0.0,0.0,0.0
0.0,-37.73980501100764,0.0,0.0,0.0,0.0,-0.0,0.0,0.0,0.0,0.0,0.0
0.0,-37.73980501100764,0.0,0.0,0.0,0.0,-0.0,0.0,0.0,0.0,0.0,0.0
0.0,-37.73980501100764,0.0,0.0,0.0,0.0,-0.0,0.0,0.0,0.0,0.0,0.0
0.0,-37.73980501100764,0.0,0.0,0.0,0.0,-0.0,0.0,0.0,0.0,0.0,0.0
0.0,-37.73980501100764,0.0,0.0,0.0,0.0,-0.0,0.0,0.0,0.0,0.0,0.0
0.0,-25.159870007338426,0.0,0.0,0.0,0.0,-0.0,0.0,0.0,0.0,0.0,0.0
0.0,-25.159870007338426,0.0,0.0,0.0,0.0,-0.0,0.0,0.0,0.0,0.0,0.0
0.0,-25.159870007338426,0.0,0.0,0.0,0.0,-0.0,0.0,0.0,0.0,0.0,0.0
0.0,-25.159870007338426,0.0,0.0,0.0,0.0,-0.0,0.0,0.0,0.0,0.0,0.0
0.0,-25.159870007338426,0.0,0.0,0.0,0.0,-0.0,0.0,0.0,0.0,0.0,0.0
0.0,-25.159870007338426,0.0,0.0,0.0,0.0,-12.579935003669213,0.0,0.0,0.0,0.0,0.0
0.0,-25.159870007338426,0.0,0.0,0.0,0.0,-12.579935003669213,0.0,0.0,0.0,0.0,0.0
0.0,-25.159870007338426,0.0,0.0,0.0,0.0,-12.579935003669213,0.0,0.0,0.0,0.0,0.0
0.0,-25.159870007338426,0.0,0.0,0.0,0.0,-12.579935003669213,0.0,0.0,0.0,0.0,0.0
0.0,-25.159870007338426,0.0,0.0,0.0,0.0,-12.579935003669213,0.0,0.0,0.0,0.0,0.0
0.0,-25.159870007338426,0.0,0.0,0.0,0.0,-0.0,0.0,0.0,0.0,0.0,0.0
0.0,-25.159870007338426,0.0,0.0,0.0,0.0,-0.0,0.0,0.0,0.0,0.0,0.0
0.0,-25.159870007338426,0.0,0.0,0.0,0.0,-0.0,0.0,0.0,0.0,0.0,0.0
0.0,-25.159870007338426,0.0,0.0,0.0,0.0,-0.0,0.0,0.0,0.0,0.0,0.0
0.0,-25.159870007338426,0.0,0.0,0.0,0.0,-0.0,0.0,0.0,0.0,0.0,0.0
0.0,-25.159870007338426,0.0,0.0,0.0,0.0,-0.0,0.0,0.0,0.0,0.0,0.0
0.0,-25.159870007338426,0.0,0.0,0.0,0.0,-0.0,0.0,0.0,0.0,0.0,0.0
0.0,-25.159870007338426,0.0,0.0,0.0,0.0,-0.0,0.0,0.0,0.0,0.0,0.0
0.0,-25.159870007338426,0.0,0.0,0.0,0.0,-0.0,0.0,0.0,0.0,0.0,0.0
0.0,-25.159870007338426,0.0,0.0,0.0,0.0,-0.0,0.0,0.0,0.0,0.0,0.0
0.0,-25.159870007338426,0.0,0.0,0.0,0.0,-0.0,0.0,0.0,0.0,0.0,0.0
0.0,-25.159870007338426,0.0,0.0,0.0,0.0,-0.0,0.0,0.0,0.0,0.0,0.0
0.0,-25.159870007338426,0.0,0.0,0.0,0.0,-0.0,0.0,0.0,0.0,0.0,0.0
0.0,-25.159870007338426,0.0,0.0,0.0,0.0,-0.0,0.0,0.0,0.0,0.0,0.0
0.0,-25.159870007338426,0.0,0.0,0.0,0.0,-0.0,0.0,0.0,0.0,0.0,0.0
0.0,-25.159870007338426,0.0,0.0,0.0,0.0,-0.0,0.0,0.0,0.0,0.0,0.0
0.0,-25.159870007338426,0.0,0.0,0.0,0.0,-0.0,0.0,0.0,0.0,0.0,0.0
0.0,-25.159870007338426,0.0,0.0,0.0,0.0,-0.0,0.0,0.0,0.0,0.0,0.0
0.0,-25.159870007338426,0.0,0.0,0.0,0.0,-12.579935003669213,0.0,0.0,0.0,0.0,0.0
0.0,-25.159870007338426,0.0,0.0,0.0,0.0,-12.579935003669213,0.0,0.0,0.0,0.0,0.0
0.0,-25.159870007338426,0.0,0.0,0.0,0.0,-12.579935003669213,0.0,0.0,0.0,0.0,0.0
0.0,-25.159870007338426,0.0,0.0,0.0,0.0,-12.579935003669213,0.0,0.0,0.0,0.0,0.0
0.0,-25.159870007338426,0.0,0.0,0.0,0.0,-12.579935003669213,0.0,0.0,0.0,0.0,0.0
0.0,-25.159870007338426,0.0,0.0,0.0,0.0,-12.579935003669213,0.0,0.0,0.0,0.0,0.0
0.0,-25.159870007338426,0.0,0.0,0.0,0.0,-12.579935003669213,0.0,0.0,0.0,0.0,0.0
0.0,-25.159870007338426,0.0,0.0,0.0,0.0,-12.579935003669213,0.0,0.0,0.0,0.0,0.0
0.0,-12.579935003669213,0.0,0.0,0.0,0.0,-12.579935003669213,0.0,0.0,0.0,0.0,0.0
0.0,-0.0,0.0,0.0,0.0,0.0,-12.579935003669213,0.0,0.0,0.0,0.0,0.0
0.0,12.579935003669213,0.0,0.0,0.0,0.0,-12.579935003669213,0.0,0.0,0.0,0.0,0.0
0.0,12.579935003669213,0.0,0.0,0.0,0.0,-12.579935003669213,0.0,0.0,0.0,0.0,0.0
0.0,25.159870007338426,0.0,0.0,0.0,0.0,-12.579935003669213,0.0,0.0,0.0,0.0,0.0
0.0,37.73980501100764,0.0,0.0,0.0,0.0,-0.0,0.0,0.0,0.0,0.0,0.0
0.0,50.31974001467685,0.0,0.0,0.0,0.0,12.579935003669213,0.0,0.0,0.0,0.0,0.0
0.0,75.47961002201528,0.0,0.0,0.0,0.0,12.579935003669213,0.0,0.0,0.0,0.0,0.0
0.0,88.05954502568449,0.0,0.0,0.0,0.0,12.579935003669213,0.0,0.0,0.0,0.0,0.0
0.0,100.6394800293537,0.0,0.0,0.0,0.0,12.579935003669213,0.0,0.0,0.0,0.0,0.0
0.0,113.21941503302293,0.0,0.0,0.0,0.0,25.159870007338426,0.0,0.0,0.0,0.0,0.0
0.0,113.21941503302293,0.0,0.0,0.0,0.0,37.73980501100764,0.0,0.0,0.0,0.0,0.0
0.0,100.6394800293537,0.0,0.0,0.0,0.0,50.31974001467685,0.0,0.0,0.0,0.0,0.0
0.0,88.05954502568449,0.0,0.0,0.0,0.0,37.73980501100764,0.0,0.0,0.0,0.0,0.0
0.0,62.899675018346066,0.0,0.0,0.0,0.0,25.159870007338426,0.0,0.0,0.0,0.0,0.0
0.0,50.31974001467685,0.0,0.0,0.0,0.0,-0.0,0.0,0.0,0.0,0.0,0.0
0.0,37.73980501100764,0.0,0.0,0.0,0.0,-12.579935003669213,0.0,0.0,0.0,0.0,0.0
0.0,12.579935003669213,0.0,0.0,0.0,0.0,-37.73980501100764,0.0,0.0,0.0,0.0,0.0
0.0,-0.0,0.0,0.0,0.0,0.0,-62.899675018346066,0.0,0.0,0.0,0.0,0.0
0.0,-0.0,0.0,0.0,0.0,0.0,-75.47961002201528,0.0,0.0,0.0,0.0,0.0
0.0,-0.0,0.0,0.0,0.0,0.0,-75.47961002201528,0.0,0.0,0.0,0.0,0.0
0.0,-12.579935003669213,0.0,0.0,0.0,0.0,-75.47961002201528,0.0,0.0,0.0,0.0,0.0
0.0,-37.73980501100764,0.0,0.0,0.0,0.0,-62.899675018346066,0.0,0.0,0.0,0.0,0.0
0.0,-37.73980501100764,0.0,0.0,0.0,0.0,-62.899675018346066,0.0,0.0,0.0,0.0,0.0
0.0,-37.73980501100764,0.0,0.0,0.0,0.0,-50.31974001467685,0.0,0.0,0.0,0.0,0.0
0.0,-37.73980501100764,0.0,0.0,0.0,0.0,-50.31974001467685,0.0,0.0,0.0,0.0,0.0
0.0,-37.73980501100764,0.0,0.0,0.0,0.0,-37.73980501100764,0.0,0.0,0.0,0.0,0.0
0.0,-50.31974001467685,0.0,0.0,0.0,0.0,-37.73980501100764,0.0,0.0,0.0,0.0,0.0
0.0,-50.31974001467685,0.0,0.0,0.0,0.0,-37.73980501100764,0.0,0.0,0.0,0.0,0.0
0.0,-50.31974001467685,0.0,0.0,0.0,0.0,-37.73980501100764,0.0,0.0,0.0,0.0,0.0
0.0,-75.47961002201528,0.0,0.0,0.0,0.0,-50.31974001467685,0.0,0.0,0.0,0.0,0.0
0.0,-138.37928504036134,0.0,0.0,0.0,0.0,-50.31974001467685,0.0,0.0,0.0,0.0,0.0
0.0,-226.43883006604585,0.0,0.0,0.0,0.0,-37.73980501100764,0.0,0.0,0.0,0.0,0.0
0.0,-251.59870007338426,0.0,0.0,0.0,0.0,-12.579935003669213,0.0,0.0,0.0,0.0,0.0
0.0,-138.37928504036134,0.0,0.0,0.0,0.0,50.31974001467685,0.0,0.0,0.0,0.0,0.0
0.0,75.47961002201528,0.0,0.0,0.0,0.0,213.85889506237663,0.0,0.0,0.0,0.0,0.0
0.0,389.9779851137456,0.0,0.0,0.0,0.0,415.13785512108404,0.0,0.0,0.0,0.0,0.0
0.0,1094.4543453192216,0.0,0.0,0.0,0.0,503.19740014676853,0.0,0.0,0.0,0.0,0.0
0.0,1069.2944753118832,0.0,0.0,0.0,0.0,402.5579201174148,0.0,0.0,0.0,0.0,0.0
0.0,1220.2536953559136,0.0,0.0,0.0,0.0,239.01876506971504,0.0,0.0,0.0,0.0,0.0
0.0,1245.413565363252,0.0,0.0,0.0,0.0,-239.01876506971504,0.0,0.0,0.0,0.0,0.0
0.0,1018.9747352972063,0.0,0.0,0.0,0.0,-574.483698500894,0.0,0.0,0.0,0.0,0.0
0.0,1094.4543453192216,0.0,0.0,0.0,0.0,-909.948631932073,0.0,0.0,0.0,0.0,0.0
0.0,880.595450256845,0.0,0.0,0.0,0.0,-1245.413565363252,0.0,0.0,0.0,0.0,0.0
0.0,654.1566201907991,0.0,0.0,0.0,0.0,-1220.2536953559136,0.0,0.0,0.0,0.0,0.0
0.0,452.8776601320917,0.0,0.0,0.0,0.0,-1132.1941503302291,0.0,0.0,0.0,0.0,0.0
0.0,289.3385050843919,0.0,0.0,0.0,0.0,-1044.1346053045447,0.0,0.0,0.0,0.0,0.0
0.0,163.53915504769978,0.0,0.0,0.0,0.0,-704.4763602054759,0.0,0.0,0.0,0.0,0.0
0.0,75.47961002201528,0.0,0.0,0.0,0.0,-440.2977251284225,0.0,0.0,0.0,0.0,0.0
0.0,25.159870007338426,0.0,0.0,0.0,0.0,-264.17863507705346,0.0,0.0,0.0,0.0,0.0
0.0,-12.579935003669213,0.0,0.0,0.0,0.0,-163.53915504769978,0.0,0.0,0.0,0.0,0.0
0.0,-37.73980501100764,0.0,0.0,0.0,0.0,-75.47961002201528,0.0,0.0,0.0,0.0,0.0
0.0,-37.73980501100764,0.0,0.0,0.0,0.0,-0.0,0.0,0.0,0.0,0.0,0.0
0.0,-50.31974001467685,0.0,0.0,0.0,0.0,37.73980501100764,0.0,0.0,0.0,0.0,0.0
0.0,-62.899675018346066,0.0,0.0,0.0,0.0,50.31974001467685,0.0,0.0,0.0,0.0,0.0
0.0,-62.899675018346066,0.0,0.0,0.0,0.0,62.899675018346066,0.0,0.0,0.0,0.0,0.0
0.0,-50.31974001467685,0.0,0.0,0.0,0.0,75.47961002201528,0.0,0.0,0.0,0.0,0.0
0.0,-50.31974001467685,0.0,0.0,0.0,0.0,88.05954502568449,0.0,0.0,0.0,0.0,0.0
0.0,-50.31974001467685,0.0,0.0,0.0,0.0,100.6394800293537,0.0,0.0,0.0,0.0,0.0
0.0,-50.31974001467685,0.0,0.0,0.0,0.0,100.6394800293537,0.0,0.0,0.0,0.0,0.0
0.0,-62.899675018346066,0.0,0.0,0.0,0.0,100.6394800293537,0.0,0.0,0.0,0.0,0.0
0.0,-75.47961002201528,0.0,0.0,0.0,0.0,100.6394800293537,0.0,0.0,0.0,0.0,0.0
0.0,-75.47961002201528,0.0,0.0,0.0,0.0,100.6394800293537,0.0,0.0,0.0,0.0,0.0
0.0,-50.31974001467685,0.0,0.0,0.0,0.0,100.6394800293537,0.0,0.0,0.0,0.0,0.0
0.0,-37.73980501100764,0.0,0.0,0.0,0.0,100.6394800293537,0.0,0.0,0.0,0.0,0.0
0.0,-37.73980501100764,0.0,0.0,0.0,0.0,113.21941503302293,0.0,0.0,0.0,0.0,0.0
0.0,-50.31974001467685,0.0,0.0,0.0,0.0,113.21941503302293,0.0,0.0,0.0,0.0,0.0
0.0,-50.31974001467685,0.0,0.0,0.0,0.0,113.21941503302293,0.0,0.0,0.0,0.0,0.0
0.0,-50.31974001467685,0.0,0.0,0.0,0.0,125.79935003669213,0.0,0.0,0.0,0.0,0.0
0.0,-50.31974001467685,0.0,0.0,0.0,0.0,125.79935003669213,0.0,0.0,0.0,0.0,0.0
0.0,-50.31974001467685,0.0,0.0,0.0,0.0,125.79935003669213,0.0,0.0,0.0,0.0,0.0
0.0,-50.31974001467685,0.0,0.0,0.0,0.0,125.79935003669213,0.0,0.0,0.0,0.0,0.0
0.0,-50.31974001467685,0.0,0.0,0.0,0.0,125.79935003669213,0.0,0.0,0.0,0.0,0.0
0.0,-50.31974001467685,0.0,0.0,0.0,0.0,138.37928504036134,0.0,0.0,0.0,0.0,0.0
0.0,-62.899675018346066,0.0,0.0,0.0,0.0,138.37928504036134,0.0,0.0,0.0,0.0,0.0
0.0,-62.899675018346066,0.0,0.0,0.0,0.0,150.95922004403056,0.0,0.0,0.0,0.0,0.0
0.0,-62.899675018346066,0.0,0.0,0.0,0.0,150.95922004403056,0.0,0.0,0.0,0.0,0.0
0.0,-62.899675018346066,0.0,0.0,0.0,0.0,150.95922004403056,0.0,0.0,0.0,0.0,0.0
0.0,-75.47961002201528,0.0,0.0,0.0,0.0,150.95922004403056,0.0,0.0,0.0,0.0,0.0
0.0,-75.47961002201528,0.0,0.0,0.0,0.0,163.53915504769978,0.0,0.0,0.0,0.0,0.0
0.0,-88.05954502568449,0.0,0.0,0.0,0.0,163.53915504769978,0.0,0.0,0.0,0.0,0.0
0.0,-100.6394800293537,0.0,0.0,0.0,0.0,163.53915504769978,0.0,0.0,0.0,0.0,0.0
0.0,-100.6394800293537,0.0,0.0,0.0,0.0,176.11909005136897,0.0,0.0,0.0,0.0,0.0
0.0,-100.6394800293537,0.0,0.0,0.0,0.0,176.11909005136897,0.0,0.0,0.0,0.0,0.0
0.0,-88.05954502568449,0.0,0.0,0.0,0.0,176.11909005136897,0.0,0.0,0.0,0.0,0.0
0.0,-88.05954502568449,0.0,0.0,0.0,0.0,176.11909005136897,0.0,0.0,0.0,0.0,0.0
0.0,-88.05954502568449,0.0,0.0,0.0,0.0,188.6990250550382,0.0,0.0,0.0,0.0,0.0
0.0,-88.05954502568449,0.0,0.0,0.0,0.0,213.85889506237663,0.0,0.0,0.0,0.0,0.0
0.0,-100.6394800293537,0.0,0.0,0.0,0.0,226.43883006604585,0.0,0.0,0.0,0.0,0.0
0.0,-113.21941503302293,0.0,0.0,0.0,0.0,226.43883006604585,0.0,0.0,0.0,0.0,0.0
0.0,-125.79935003669213,0.0,0.0,0.0,0.0,239.01876506971504,0.0,0.0,0.0,0.0,0.0
0.0,-125.79935003669213,0.0,0.0,0.0,0.0,264.17863507705346,0.0,0.0,0.0,0.0,0.0
0.0,-125.79935003669213,0.0,0.0,0.0,0.0,276.7585700807227,0.0,0.0,0.0,0.0,0.0
0.0,-125.79935003669213,0.0,0.0,0.0,0.0,276.7585700807227,0.0,0.0,0.0,0.0,0.0
0.0,-125.79935003669213,0.0,0.0,0.0,0.0,289.3385050843919,0.0,0.0,0.0,0.0,0.0
0.0,-125.79935003669213,0.0,0.0,0.0,0.0,301.9184400880611,0.0,0.0,0.0,0.0,0.0
0.0,-125.79935003669213,0.0,0.0,0.0,0.0,314.49837509173034,0.0,0.0,0.0,0.0,0.0
0.0,-125.79935003669213,0.0,0.0,0.0,0.0,327.07831009539956,0.0,0.0,0.0,0.0,0.0
0.0,-113.21941503302293,0.0,0.0,0.0,0.0,339.6582450990688,0.0,0.0,0.0,0.0,0.0
0.0,-100.6394800293537,0.0,0.0,0.0,0.0,352.23818010273794,0.0,0.0,0.0,0.0,0.0
0.0,-75.47961002201528,0.0,0.0,0.0,0.0,364.81811510640716,0.0,0.0,0.0,0.0,0.0
0.0,-50.31974001467685,0.0,0.0,0.0,0.0,377.3980501100764,0.0,0.0,0.0,0.0,0.0
0.0,-37.73980501100764,0.0,0.0,0.0,0.0,377.3980501100764,0.0,0.0,0.0,0.0,0.0
0.0,-37.73980501100764,0.0,0.0,0.0,0.0,364.81811510640716,0.0,0.0,0.0,0.0,0.0
0.0,-25.159870007338426,0.0,0.0,0.0,0.0,352.23818010273794,0.0,0.0,0.0,0.0,0.0
0.0,-12.579935003669213,0.0,0.0,0.0,0.0,339.6582450990688,0.0,0.0,0.0,0.0,0.0
0.0,-0.0,0.0,0.0,0.0,0.0,314.49837509173034,0.0,0.0,0.0,0.0,0.0
0.0,12.579935003669213,0.0,0.0,0.0,0.0,301.9184400880611,0.0,0.0,0.0,0.0,0.0
0.0,25.159870007338426,0.0,0.0,0.0,0.0,276.7585700807227,0.0,0.0,0.0,0.0,0.0
0.0,25.159870007338426,0.0,0.0,0.0,0.0,251.59870007338426,0.0,0.0,0.0,0.0,0.0
0.0,25.159870007338426,0.0,0.0,0.0,0.0,213.85889506237663,0.0,0.0,0.0,0.0,0.0
0.0,25.159870007338426,0.0,0.0,0.0,0.0,176.11909005136897,0.0,0.0,0.0,0.0,0.0
0.0,25.159870007338426,0.0,0.0,0.0,0.0,150.95922004403056,0.0,0.0,0.0,0.0,0.0
0.0,25.159870007338426,0.0,0.0,0.0,0.0,125.79935003669213,0.0,0.0,0.0,0.0,0.0
0.0,25.159870007338426,0.0,0.0,0.0,0.0,100.6394800293537,0.0,0.0,0.0,0.0,0.0
0.0,25.159870007338426,0.0,0.0,0.0,0.0,88.05954502568449,0.0,0.0,0.0,0.0,0.0
0.0,12.579935003669213,0.0,0.0,0.0,0.0,62.899675018346066,0.0,0.0,0.0,0.0,0.0
0.0,12.579935003669213,0.0,0.0,0.0,0.0,62.899675018346066,0.0,0.0,0.0,0.0,0.0
0.0,25.159870007338426,0.0,0.0,0.0,0.0,50.31974001467685,0.0,0.0,0.0,0.0,0.0
0.0,25.159870007338426,0.0,0.0,0.0,0.0,37.73980501100764,0.0,0.0,0.0,0.0,0.0
0.0,12.579935003669213,0.0,0.0,0.0,0.0,37.73980501100764,0.0,0.0,0.0,0.0,0.0
0.0,12.579935003669213,0.0,0.0,0.0,0.0,25.159870007338426,0.0,0.0,0.0,0.0,0.0
0.0,-0.0,0.0,0.0,0.0,0.0,25.159870007338426,0.0,0.0,0.0,0.0,0.0
0.0,-0.0,0.0,0.0,0.0,0.0,25.159870007338426,0.0,0.0,0.0,0.0,0.0
0.0,-0.0,0.0,0.0,0.0,0.0,25.159870007338426,0.0,0.0,0.0,0.0,0.0
0.0,-0.0,0.0,0.0,0.0,0.0,25.159870007338426,0.0,0.0,0.0,0.0,0.0
0.0,-12.579935003669213,0.0,0.0,0.0,0.0,25.159870007338426,0.0,0.0,0.0,0.0,0.0
0.0,-12.579935003669213,0.0,0.0,0.0,0.0,25.159870007338426,0.0,0.0,0.0,0.0,0.0
0.0,-25.159870007338426,0.0,0.0,0.0,0.0,25.159870007338426,0.0,0.0,0.0,0.0,0.0
0.0,-25.159870007338426,0.0,0.0,0.0,0.0,25.159870007338426,0.0,0.0,0.0,0.0,0.0
0.0,-12.579935003669213,0.0,0.0,0.0,0.0,25.159870007338426,0.0,0.0,0.0,0.0,0.0
0.0,-12.579935003669213,0.0,0.0,0.0,0.0,25.159870007338426,0.0,0.0,0.0,0.0,0.0
0.0,-25.159870007338426,0.0,0.0,0.0,0.0,25.159870007338426,0.0,0.0,0.0,0.0,0.0
0.0,-37.73980501100764,0.0,0.0,0.0,0.0,25.159870007338426,0.0,0.0,0.0,0.0,0.0
0.0,-37.73980501100764,0.0,0.0,0.0,0.0,25.159870007338426,0.0,0.0,0.0,0.0,0.0
0.0,-37.73980501100764,0.0,0.0,0.0,0.0,25.159870007338426,0.0,0.0,0.0,0.0,0.0
0.0,-37.73980501100764,0.0,0.0,0.0,0.0,25.159870007338426,0.0,0.0,0.0,0.0,0.0
0.0,-37.73980501100764,0.0,0.0,0.0,0.0,25.159870007338426,0.0,0.0,0.0,0.0,0.0
0.0,-37.73980501100764,0.0,0.0,0.0,0.0,25.159870007338426,0.0,0.0,0.0,0.0,0.0
0.0,-37.73980501100764,0.0,0.0,0.0,0.0,25.159870007338426,0.0,0.0,0.0,0.0,0.0
0.0,-50.31974001467685,0.0,0.0,0.0,0.0,25.159870007338426,0.0,0.0,0.0,0.0,0.0
0.0,-50.31974001467685,0.0,0.0,0.0,0.0,25.159870007338426,0.0,0.0,0.0,0.0,0.0
0.0,-50.31974001467685,0.0,0.0,0.0,0.0,25.159870007338426,0.0,0.0,0.0,0.0,0.0
0.0,-50.31974001467685,0.0,0.0,0.0,0.0,25.159870007338426,0.0,0.0,0.0,0.0,0.0
0.0,-37.73980501100764,0.0,0.0,0.0,0.0,25.159870007338426,0.0,0.0,0.0,0.0,0.0
0.0,-37.73980501100764,0.0,0.0,0.0,0.0,25.159870007338426,0.0,0.0,0.0,0.0,0.0
0.0,-50.31974001467685,0.0,0.0,0.0,0.0,25.159870007338426,0.0,0.0,0.0,0.0,0.0
0.0,-62.899675018346066,0.0,0.0,0.0,0.0,25.159870007338426,0.0,0.0,0.0,0.0,0.0
0.0,-62.899675018346066,0.0,0.0,0.0,0.0,25.159870007338426,0.0,0.0,0.0,0.0,0.0
0.0,-50.31974001467685,0.0,0.0,0.0,0.0,12.579935003669213,0.0,0.0,0.0,0.0,0.0
0.0,-37.73980501100764,0.0,0.0,0.0,0.0,12.579935003669213,0.0,0.0,0.0,0.0,0.0
0.0,-37.73980501100764,0.0,0.0,0.0,0.0,12.579935003669213,0.0,0.0,0.0,0.0,0.0
0.0,-37.73980501100764,0.0,0.0,0.0,0.0,12.579935003669213,0.0,0.0,0.0,0.0,0.0
0.0,-37.73980501100764,0.0,0.0,0.0,0.0,12.579935003669213,0.0,0.0,0.0,0.0,0.0
0.0,-25.159870007338426,0.0,0.0,0.0,0.0,12.579935003669213,0.0,0.0,0.0,0.0,0.0
0.0,-25.159870007338426,0.0,0.0,0.0,0.0,12.579935003669213,0.0,0.0,0.0,0.0,0.0
0.0,-37.73980501100764,0.0,0.0,0.0,0.0,12.579935003669213,0.0,0.0,0.0,0.0,0.0
0.0,-37.73980501100764,0.0,0.0,0.0,0.0,12.579935003669213,0.0,0.0,0.0,0.0,0.0
0.0,-37.73980501100764,0.0,0.0,0.0,0.0,12.579935003669213,0.0,0.0,0.0,0.0,0.0
0.0,-25.159870007338426,0.0,0.0,0.0,0.0,12.579935003669213,0.0,0.0,0.0,0.0,0.0
0.0,-25.159870007338426,0.0,0.0,0.0,0.0,12.579935003669213,0.0,0.0,0.0,0.0,0.0
0.0,-25.159870007338426,0.0,0.0,0.0,0.0,-0.0,0.0,0.0,0.0,0.0,0.0
0.0,-37.73980501100764,0.0,0.0,0.0,0.0,-0.0,0.0,0.0,0.0,0.0,0.0
0.0,-37.73980501100764,0.0,0.0,0.0,0.0,-0.0,0.0,0.0,0.0,0.0,0.0
0.0,-37.73980501100764,0.0,0.0,0.0,0.0,-0.0,0.0,0.0,0.0,0.0,0.0
0.0,-25.159870007338426,0.0,0.0,0.0,0.0,-0.0,0.0,0.0,0.0,0.0,0.0
0.0,-25.159870007338426,0.0,0.0,0.0,0.0,-0.0,0.0,0.0,0.0,0.0,0.0
0.0,-25.159870007338426,0.0,0.0,0.0,0.0,-12.579935003669213,0.0,0.0,0.0,0.0,0.0
0.0,-25.159870007338426,0.0,0.0,0.0,0.0,-12.579935003669213,0.0,0.0,0.0,0.0,0.0
0.0,-25.159870007338426,0.0,0.0,0.0,0.0,-12.579935003669213,0.0,0.0,0.0,0.0,0.0
0.0,-12.579935003669213,0.0,0.0,0.0,0.0,-12.579935003669213,0.0,0.0,0.0,0.0,0.0
0.0,-12.579935003669213,0.0,0.0,0.0,0.0,-12.579935003669213,0.0,0.0,0.0,0.0,0.0
0.0,-0.0,0.0,0.0,0.0,0.0,-12.579935003669213,0.0,0.0,0.0,0.0,0.0
0.0,-12.579935003669213,0.0,0.0,0.0,0.0,-12.579935003669213,0.0,0.0,0.0,0.0,0.0
0.0,-12.579935003669213,0.0,0.0,0.0,0.0,-12.579935003669213,0.0,0.0,0.0,0.0,0.0
0.0,-12.579935003669213,0.0,0.0,0.0,0.0,-12.579935003669213,0.0,0.0,0.0,0.0,0.0
0.0,-12.579935003669213,0.0,0.0,0.0,0.0,-12.579935003669213,0.0,0.0,0.0,0.0,0.0
0.0,-12.579935003669213,0.0,0.0,0.0,0.0,-12.579935003669213,0.0,0.0,0.0,0.0,0.0
0.0,-12.579935003669213,0.0,0.0,0.0,0.0,-12.579935003669213,0.0,0.0,0.0,0.0,0.0
0.0,-0.0,0.0,0.0,0.0,0.0,-0.0,0.0,0.0,0.0,0.0,0.0
0.0,25.159870007338426,0.0,0.0,0.0,0.0,-0.0,0.0,0.0,0.0,0.0,0.0
0.0,37.73980501100764,0.0,0.0,0.0,0.0,12.579935003669213,0.0,0.0,0.0,0.0,0.0
0.0,62.899675018346066,0.0,0.0,0.0,0.0,12.579935003669213,0.0,0.0,0.0,0.0,0.0
0.0,100.6394800293537,0.0,0.0,0.0,0.0,12.579935003669213,0.0,0.0,0.0,0.0,0.0
0.0,113.21941503302293,0.0,0.0,0.0,0.0,12.579935003669213,0.0,0.0,0.0,0.0,0.0
0.0,125.79935003669213,0.0,0.0,0.0,0.0,25.159870007338426,0.0,0.0,0.0,0.0,0.0
0.0,125.79935003669213,0.0,0.0,0.0,0.0,37.73980501100764,0.0,0.0,0.0,0.0,0.0
0.0,125.79935003669213,0.0,0.0,0.0,0.0,50.31974001467685,0.0,0.0,0.0,0.0,0.0
0.0,113.21941503302293,0.0,0.0,0.0,0.0,37.73980501100764,0.0,0.0,0.0,0.0,0.0
0.0,100.6394800293537,0.0,0.0,0.0,0.0,25.159870007338426,0.0,0.0,0.0,0.0,0.0
0.0,75.47961002201528,0.0,0.0,0.0,0.0,12.579935003669213,0.0,0.0,0.0,0.0,0.0
0.0,50.31974001467685,0.0,0.0,0.0,0.0,-12.579935003669213,0.0,0.0,0.0,0.0,0.0
0.0,25.159870007338426,0.0,0.0,0.0,0.0,-37.73980501100764,0.0,0.0,0.0,0.0,0.0
0.0,12.579935003669213,0.0,0.0,0.0,0.0,-62.899675018346066,0.0,0.0,0.0,0.0,0.0
0.0,12.579935003669213,0.0,0.0,0.0,0.0,-75.47961002201528,0.0,0.0,0.0,0.0,0.0
0.0,-0.0,0.0,0.0,0.0,0.0,-75.47961002201528,0.0,0.0,0.0,0.0,0.0
0.0,-12.579935003669213,0.0,0.0,0.0,0.0,-75.47961002201528,0.0,0.0,0.0,0.0,0.0
0.0,-37.73980501100764,0.0,0.0,0.0,0.0,-75.47961002201528,0.0,0.0,0.0,0.0,0.0
0.0,-37.73980501100764,0.0,0.0,0.0,0.0,-75.47961002201528,0.0,0.0,0.0,0.0,0.0
0.0,-37.73980501100764,0.0,0.0,0.0,0.0,-62.899675018346066,0.0,0.0,0.0,0.0,0.0
0.0,-37.73980501100764,0.0,0.0,0.0,0.0,-50.31974001467685,0.0,0.0,0.0,0.0,0.0
0.0,-37.73980501100764,0.0,0.0,0.0,0.0,-37.73980501100764,0.0,0.0,0.0,0.0,0.0
0.0,-37.73980501100764,0.0,0.0,0.0,0.0,-50.31974001467685,0.0,0.0,0.0,0.0,0.0
0.0,-37.73980501100764,0.0,0.0,0.0,0.0,-50.31974001467685,0.0,0.0,0.0,0.0,0.0
0.0,-37.73980501100764,0.0,0.0,0.0,0.0,-50.31974001467685,0.0,0.0,0.0,0.0,0.0
0.0,-37.73980501100764,0.0,0.0,0.0,0.0,-50.31974001467685,0.0,0.0,0.0,0.0,0.0
0.0,-50.31974001467685,0.0,0.0,0.0,0.0,-50.31974001467685,0.0,0.0,0.0,0.0,0.0
0.0,-75.47961002201528,0.0,0.0,0.0,0.0,-50.31974001467685,0.0,0.0,0.0,0.0,0.0
0.0,-138.37928504036134,0.0,0.0,0.0,0.0,-37.73980501100764,0.0,0.0,0.0,0.0,0.0
0.0,-188.6990250550382,0.0,0.0,0.0,0.0,-25.159870007338426,0.0,0.0,0.0,0.0,0.0
0.0,-163.53915504769978,0.0,0.0,0.0,0.0,12.579935003669213,0.0,0.0,0.0,0.0,0.0
0.0,-0.0,0.0,0.0,0.0,0.0,100.6394800293537,0.0,0.0,0.0,0.0,0.0
0.0,251.59870007338426,0.0,0.0,0.0,0.0,276.7585700807227,0.0,0.0,0.0,0.0,0.0
0.0,628.9967501834607,0.0,0.0,0.0,0.0,427.71779012475326,0.0,0.0,0.0,0.0,0.0
0.0,956.0750602788602,0.0,0.0,0.0,0.0,415.13785512108404,0.0,0.0,0.0,0.0,0.0
0.0,1295.733305377929,0.0,0.0,0.0,0.0,301.9184400880611,0.0,0.0,0.0,0.0,0.0
0.0,1371.2129153999442,0.0,0.0,0.0,0.0,62.899675018346066,0.0,0.0,0.0,0.0,0.0
0.0,1320.8931753852673,0.0,0.0,0.0,0.0,-603.8368801761222,0.0,0.0,0.0,0.0,0.0
0.0,1195.0938253485754,0.0,0.0,0.0,0.0,-886.8854177586795,0.0,0.0,0.0,0.0,0.0
0.0,1069.2944753118832,0.0,0.0,0.0,0.0,-1169.933955341237,0.0,0.0,0.0,0.0,0.0
0.0,842.8556452458373,0.0,0.0,0.0,0.0,-1094.4543453192216,0.0,0.0,0.0,0.0,0.0
0.0,591.256945172453,0.0,0.0,0.0,0.0,-1144.7740853338985,0.0,0.0,0.0,0.0,0.0
0.0,415.13785512108404,0.0,0.0,0.0,0.0,-1018.9747352972063,0.0,0.0,0.0,0.0,0.0
0.0,276.7585700807227,0.0,0.0,0.0,0.0,-893.1753852605142,0.0,0.0,0.0,0.0,0.0
0.0,150.95922004403056,0.0,0.0,0.0,0.0,-591.256945172453,0.0,0.0,0.0,0.0,0.0
0.0,62.899675018346066,0.0,0.0,0.0,0.0,-352.23818010273794,0.0,0.0,0.0,0.0,0.0
0.0,12.579935003669213,0.0,0.0,0.0,0.0,-213.85889506237663,0.0,0.0,0.0,0.0,0.0
0.0,-12.579935003669213,0.0,0.0,0.0,0.0,-113.21941503302293,0.0,0.0,0.0,0.0,0.0
0.0,-37.73980501100764,0.0,0.0,0.0,0.0,-25.159870007338426,0.0,0.0,0.0,0.0,0.0
0.0,-37.73980501100764,0.0,0.0,0.0,0.0,25.159870007338426,0.0,0.0,0.0,0.0,0.0
0.0,-50.31974001467685,0.0,0.0,0.0,0.0,50.31974001467685,0.0,0.0,0.0,0.0,0.0
0.0,-50.31974001467685,0.0,0.0,0.0,0.0,75.47961002201528,0.0,0.0,0.0,0.0,0.0
0.0,-50.31974001467685,0.0,0.0,0.0,0.0,88.05954502568449,0.0,0.0,0.0,0.0,0.0
0.0,-50.31974001467685,0.0,0.0,0.0,0.0,100.6394800293537,0.0,0.0,0.0,0.0,0.0
0.0,-50.31974001467685,0.0,0.0,0.0,0.0,100.6394800293537,0.0,0.0,0.0,0.0,0.0
0.0,-37.73980501100764,0.0,0.0,0.0,0.0,100.6394800293537,0.0,0.0,0.0,0.0,0.0
0.0,-37.73980501100764,0.0,0.0,0.0,0.0,113.21941503302293,0.0,0.0,0.0,0.0,0.0
0.0,-37.73980501100764,0.0,0.0,0.0,0.0,113.21941503302293,0.0,0.0,0.0,0.0,0.0
0.0,-37.73980501100764,0.0,0.0,0.0,0.0,113.21941503302293,0.0,0.0,0.0,0.0,0.0
0.0,-50.31974001467685,0.0,0.0,0.0,0.0,113.21941503302293,0.0,0.0,0.0,0.0,0.0
0.0,-50.31974001467685,0.0,0.0,0.0,0.0,113.21941503302293,0.0,0.0,0.0,0.0,0.0
0.0,-50.31974001467685,0.0,0.0,0.0,0.0,113.21941503302293,0.0,0.0,0.0,0.0,0.0
0.0,-37.73980501100764,0.0,0.0,0.0,0.0,113.21941503302293,0.0,0.0,0.0,0.0,0.0
0.0,-37.73980501100764,0.0,0.0,0.0,0.0,113.21941503302293,0.0,0.0,0.0,0.0,0.0
0.0,-50.31974001467685,0.0,0.0,0.0,0.0,125.79935003669213,0.0,0.0,0.0,0.0,0.0
0.0,-50.31974001467685,0.0,0.0,0.0,0.0,125.79935003669213,0.0,0.0,0.0,0.0,0.0
0.0,-50.31974001467685,0.0,0.0,0.0,0.0,125.79935003669213,0.0,0.0,0.0,0.0,0.0
0.0,-50.31974001467685,0.0,0.0,0.0,0.0,125.79935003669213,0.0,0.0,0.0,0.0,0.0
0.0,-50.31974001467685,0.0,0.0,0.0,0.0,125.79935003669213,0.0,0.0,0.0,0.0,0.0
0.0,-50.31974001467685,0.0,0.0,0.0,0.0,125.79935003669213,0.0,0.0,0.0,0.0,0.0
0.0,-50.31974001467685,0.0,0.0,0.0,0.0,138.37928504036134,0.0,0.0,0.0,0.0,0.0
0.0,-50.31974001467685,0.0,0.0,0.0,0.0,138.37928504036134,0.0,0.0,0.0,0.0,0.0
0.0,-50.31974001467685,0.0,0.0,0.0,0.0,150.95922004403056,0.0,0.0,0.0,0.0,0.0
0.0,-50.31974001467685,0.0,0.0,0.0,0.0,138.37928504036134,0.0,0.0,0.0,0.0,0.0
0.0,-50.31974001467685,0.0,0.0,0.0,0.0,138.37928504036134,0.0,0.0,0.0,0.0,0.0
0.0,-50.31974001467685,0.0,0.0,0.0,0.0,150.95922004403056,0.0,0.0,0.0,0.0,0.0
0.0,-50.31974001467685,0.0,0.0,0.0,0.0,163.53915504769978,0.0,0.0,0.0,0.0,0.0
