-1346.9002412671844,138.4663799433554,-100.70282177698574,nan,nan,nan,nan,nan,-125.87852722123218,-390.22343438581976,nan,nan
-1346.9002412671844,138.4663799433554,-113.29067449910896,62.93926361061609,-12.587852722123218,nan,nan,125.87852722123218,-90.6325395992872,-667.1561942725306,nan,nan
-1346.9002412671844,88.11496905486253,-113.29067449910896,62.93926361061609,-0.0,nan,226.58134899821792,125.87852722123218,-55.38655197734223,-994.4403650477342,nan,nan
-1346.9002412671844,37.763558166369656,-125.87852722123218,62.93926361061609,12.587852722123218,nan,-100.70282177698574,138.4663799433554,-20.14056435539708,-1221.0217140459522,251.75705444246435,641.9804888282841
-1346.9002412671844,-12.587852722123218,-138.4663799433554,62.93926361061609,12.587852722123218,-75.52711633273931,-100.70282177698574,151.05423266547862,15.105423266547897,-1044.7917759362272,88.11496905486253,440.5748452743126
-1346.9002412671844,-62.93926361061609,-151.05423266547862,62.93926361061609,12.587852722123218,-88.11496905486253,-100.70282177698574,151.05423266547862,50.35141088849287,-868.561837826502,-50.35141088849287,226.58134899821792
-1346.9002412671844,-62.93926361061609,-163.64208538760184,62.93926361061609,12.587852722123218,-88.11496905486253,-40.91052134690046,151.05423266547862,50.35141088849287,-692.331899716777,-62.93926361061609,138.4663799433554
-1346.9002412671844,-62.93926361061609,-176.22993810972505,62.93926361061609,25.175705444246436,-88.11496905486253,18.881779083184828,151.05423266547862,62.93926361061609,-516.101961607052,-62.93926361061609,62.93926361061609
-1346.9002412671844,-75.52711633273931,-188.81779083184827,62.93926361061609,25.175705444246436,-100.70282177698574,78.67407951327012,151.05423266547862,62.93926361061609,-339.8720234973269,-75.52711633273931,37.763558166369656
-1346.9002412671844,-75.52711633273931,-213.9934962760947,50.35141088849287,25.175705444246436,-100.70282177698574,138.4663799433554,151.05423266547862,62.93926361061609,-327.2841707752037,-75.52711633273931,37.763558166369656
-1346.9002412671844,-62.93926361061609,-239.16920172034114,50.35141088849287,25.175705444246436,-100.70282177698574,138.4663799433554,163.64208538760184,75.52711633273931,-264.3449071645876,-88.11496905486253,25.175705444246436
-1346.9002412671844,-62.93926361061609,-251.75705444246435,37.763558166369656,25.175705444246436,-100.70282177698574,138.4663799433554,163.64208538760184,75.52711633273931,-188.81779083184827,-88.11496905486253,12.587852722123218
-1346.9002412671844,-62.93926361061609,-264.3449071645876,37.763558166369656,37.763558166369656,-100.70282177698574,138.4663799433554,163.64208538760184,88.11496905486253,-138.4663799433554,-88.11496905486253,-0.0
-1346.9002412671844,-62.93926361061609,-276.9327598867108,37.763558166369656,50.35141088849287,-100.70282177698574,138.4663799433554,176.22993810972505,100.70282177698574,-125.87852722123218,-88.11496905486253,-0.0
-1346.9002412671844,-62.93926361061609,-289.520612608834,37.763558166369656,50.35141088849287,-100.70282177698574,138.4663799433554,188.81779083184827,100.70282177698574,-113.29067449910896,-100.70282177698574,12.587852722123218
-1346.9002412671844,-62.93926361061609,-302.10846533095724,25.175705444246436,62.93926361061609,-113.29067449910896,138.4663799433554,201.4056435539715,113.29067449910896,-100.70282177698574,-100.70282177698574,-0.0
-1346.9002412671844,-50.35141088849287,-289.520612608834,25.175705444246436,75.52711633273931,-113.29067449910896,125.87852722123218,201.4056435539715,125.87852722123218,-113.29067449910896,-88.11496905486253,12.587852722123218
-1346.9002412671844,-50.35141088849287,-264.3449071645876,25.175705444246436,88.11496905486253,-113.29067449910896,125.87852722123218,213.9934962760947,125.87852722123218,-113.29067449910896,-88.11496905486253,25.175705444246436
-1346.9002412671844,-50.35141088849287,-239.16920172034114,12.587852722123218,100.70282177698574,-125.87852722123218,125.87852722123218,226.58134899821792,125.87852722123218,-100.70282177698574,-88.11496905486253,12.587852722123218
-1346.9002412671844,-50.35141088849287,-213.9934962760947,-0.0,113.29067449910896,-125.87852722123218,113.29067449910896,251.75705444246435,138.4663799433554,-100.70282177698574,-88.11496905486253,12.587852722123218
-409.1052134690046,-37.763558166369656,-176.22993810972505,-0.0,125.87852722123218,-138.4663799433554,113.29067449910896,264.3449071645876,138.4663799433554,-100.70282177698574,-88.11496905486253,12.587852722123218
528.6898143291752,-37.763558166369656,-113.29067449910896,-12.587852722123218,151.05423266547862,-138.4663799433554,100.70282177698574,302.10846533095724,151.05423266547862,-88.11496905486253,-88.11496905486253,25.175705444246436
113.29067449910896,-25.175705444246436,-75.52711633273931,-25.175705444246436,176.22993810972505,-151.05423266547862,100.70282177698574,327.2841707752037,176.22993810972505,-88.11496905486253,-88.11496905486253,12.587852722123218
113.29067449910896,-12.587852722123218,-62.93926361061609,-25.175705444246436,188.81779083184827,-163.64208538760184,100.70282177698574,352.4598762194501,188.81779083184827,-88.11496905486253,-100.70282177698574,12.587852722123218
113.29067449910896,-0.0,-50.35141088849287,-37.763558166369656,213.9934962760947,-176.22993810972505,100.70282177698574,390.22343438581976,213.9934962760947,-75.52711633273931,-100.70282177698574,12.587852722123218
81.82104269380092,12.587852722123218,-37.763558166369656,-50.35141088849287,226.58134899821792,-188.81779083184827,88.11496905486253,427.9869925521894,226.58134899821792,-75.52711633273931,-100.70282177698574,12.587852722123218
50.35141088849287,25.175705444246436,-25.175705444246436,-50.35141088849287,251.75705444246435,-201.4056435539715,75.52711633273931,478.33840344068227,251.75705444246435,-75.52711633273931,-100.70282177698574,12.587852722123218
18.881779083184828,37.763558166369656,-25.175705444246436,-62.93926361061609,276.9327598867108,-213.9934962760947,62.93926361061609,516.101961607052,276.9327598867108,-75.52711633273931,-113.29067449910896,12.587852722123218
-12.587852722123218,25.175705444246436,-25.175705444246436,-62.93926361061609,276.9327598867108,-226.58134899821792,62.93926361061609,566.4533724955448,302.10846533095724,-75.52711633273931,-113.29067449910896,-0.0
-12.587852722123218,25.175705444246436,-25.175705444246436,-62.93926361061609,276.9327598867108,-226.58134899821792,50.35141088849287,604.2169306619145,327.2841707752037,-62.93926361061609,-113.29067449910896,-0.0
-12.587852722123218,25.175705444246436,-25.175705444246436,-75.52711633273931,264.3449071645876,-239.16920172034114,50.35141088849287,629.3926361061609,352.4598762194501,-75.52711633273931,-113.29067449910896,-0.0
-0.0,12.587852722123218,-37.763558166369656,-75.52711633273931,251.75705444246435,-251.75705444246435,50.35141088849287,667.1561942725306,377.63558166369654,-75.52711633273931,-113.29067449910896,-0.0
-0.0,12.587852722123218,-37.763558166369656,-75.52711633273931,239.16920172034114,-239.16920172034114,50.35141088849287,679.7440469946538,402.811287107943,-75.52711633273931,-113.29067449910896,-0.0
12.587852722123218,-0.0,-37.763558166369656,-75.52711633273931,201.4056435539715,-226.58134899821792,50.35141088849287,692.331899716777,427.9869925521894,-62.93926361061609,-125.87852722123218,-0.0
25.175705444246436,-25.175705444246436,-37.763558166369656,-75.52711633273931,163.64208538760184,-213.9934962760947,50.35141088849287,679.7440469946538,453.16269799643584,-62.93926361061609,-125.87852722123218,-12.587852722123218
50.35141088849287,-25.175705444246436,-37.763558166369656,-62.93926361061609,125.87852722123218,-188.81779083184827,50.35141088849287,654.5683415504074,465.75055071855905,-50.35141088849287,-125.87852722123218,-12.587852722123218
75.52711633273931,-37.763558166369656,-50.35141088849287,-62.93926361061609,88.11496905486253,-163.64208538760184,62.93926361061609,604.2169306619145,478.33840344068227,-62.93926361061609,-138.4663799433554,-25.175705444246436
100.70282177698574,-37.763558166369656,-62.93926361061609,-50.35141088849287,62.93926361061609,-125.87852722123218,62.93926361061609,516.101961607052,478.33840344068227,-62.93926361061609,-151.05423266547862,-25.175705444246436
113.29067449910896,-37.763558166369656,-62.93926361061609,-37.763558166369656,37.763558166369656,-88.11496905486253,62.93926361061609,427.9869925521894,465.75055071855905,-50.35141088849287,-163.64208538760184,-37.763558166369656
125.87852722123218,-37.763558166369656,-62.93926361061609,-25.175705444246436,12.587852722123218,-62.93926361061609,75.52711633273931,327.2841707752037,465.75055071855905,-50.35141088849287,-163.64208538760184,-37.763558166369656
151.05423266547862,-50.35141088849287,-50.35141088849287,-25.175705444246436,12.587852722123218,-50.35141088849287,75.52711633273931,239.16920172034114,440.5748452743126,-50.35141088849287,-163.64208538760184,-50.35141088849287
163.64208538760184,-50.35141088849287,-62.93926361061609,-25.175705444246436,-0.0,-25.175705444246436,88.11496905486253,163.64208538760184,377.63558166369654,-37.763558166369656,-188.81779083184827,-62.93926361061609
176.22993810972505,-62.93926361061609,-75.52711633273931,-12.587852722123218,-12.587852722123218,-12.587852722123218,88.11496905486253,113.29067449910896,314.69631805308046,-37.763558166369656,-201.4056435539715,-88.11496905486253
188.81779083184827,-62.93926361061609,-75.52711633273931,-0.0,-12.587852722123218,-12.587852722123218,88.11496905486253,75.52711633273931,239.16920172034114,-37.763558166369656,-213.9934962760947,-100.70282177698574
201.4056435539715,-62.93926361061609,-75.52711633273931,-0.0,-12.587852722123218,-12.587852722123218,88.11496905486253,50.35141088849287,176.22993810972505,-37.763558166369656,-239.16920172034114,-113.29067449910896
188.81779083184827,-62.93926361061609,-75.52711633273931,-0.0,-25.175705444246436,-0.0,88.11496905486253,25.175705444246436,113.29067449910896,-37.763558166369656,-251.75705444246435,-138.4663799433554
176.22993810972505,-75.52711633273931,-75.52711633273931,-0.0,-25.175705444246436,-12.587852722123218,100.70282177698574,25.175705444246436,75.52711633273931,-50.35141088849287,-276.9327598867108,-151.05423266547862
163.64208538760184,-88.11496905486253,-75.52711633273931,-0.0,-25.175705444246436,-12.587852722123218,100.70282177698574,12.587852722123218,50.35141088849287,-50.35141088849287,-289.520612608834,-163.64208538760184
125.87852722123218,-88.11496905486253,-88.11496905486253,-0.0,-25.175705444246436,-12.587852722123218,100.70282177698574,-0.0,25.175705444246436,-50.35141088849287,-314.69631805308046,-163.64208538760184
100.70282177698574,-88.11496905486253,-88.11496905486253,-0.0,-25.175705444246436,-0.0,100.70282177698574,-0.0,12.587852722123218,-50.35141088849287,-314.69631805308046,-163.64208538760184
62.93926361061609,-100.70282177698574,-88.11496905486253,12.587852722123218,-25.175705444246436,-0.0,100.70282177698574,-0.0,-0.0,-62.93926361061609,-314.69631805308046,-163.64208538760184
37.763558166369656,-100.70282177698574,-75.52711633273931,12.587852722123218,-25.175705444246436,-0.0,113.29067449910896,-0.0,-12.587852722123218,-62.93926361061609,-314.69631805308046,-151.05423266547862
12.587852722123218,-113.29067449910896,-62.93926361061609,12.587852722123218,-25.175705444246436,-0.0,125.87852722123218,-0.0,-12.587852722123218,-75.52711633273931,-302.10846533095724,-138.4663799433554
-0.0,-113.29067449910896,-50.35141088849287,12.587852722123218,-25.175705444246436,-0.0,125.87852722123218,-0.0,-12.587852722123218,-88.11496905486253,-276.9327598867108,-100.70282177698574
-12.587852722123218,-113.29067449910896,-50.35141088849287,12.587852722123218,-25.175705444246436,-0.0,125.87852722123218,-0.0,-12.587852722123218,-100.70282177698574,-226.58134899821792,-75.52711633273931
-25.175705444246436,-113.29067449910896,-50.35141088849287,12.587852722123218,-25.175705444246436,-12.587852722123218,138.4663799433554,-0.0,-12.587852722123218,-100.70282177698574,-188.81779083184827,-12.587852722123218
-37.763558166369656,-88.11496905486253,-50.35141088849287,12.587852722123218,-25.175705444246436,-25.175705444246436,138.4663799433554,-0.0,-12.587852722123218,-113.29067449910896,-138.4663799433554,25.175705444246436
-50.35141088849287,-75.52711633273931,-50.35141088849287,12.587852722123218,-25.175705444246436,-12.587852722123218,138.4663799433554,-0.0,-12.587852722123218,-125.87852722123218,-100.70282177698574,62.93926361061609
-50.35141088849287,-62.93926361061609,-37.763558166369656,12.587852722123218,-25.175705444246436,-12.587852722123218,138.4663799433554,12.587852722123218,-12.587852722123218,-113.29067449910896,-62.93926361061609,88.11496905486253
-50.35141088849287,-50.35141088849287,-12.587852722123218,12.587852722123218,-25.175705444246436,-12.587852722123218,138.4663799433554,12.587852722123218,-12.587852722123218,-100.70282177698574,-25.175705444246436,100.70282177698574
-50.35141088849287,-37.763558166369656,-0.0,12.587852722123218,-37.763558166369656,-12.587852722123218,138.4663799433554,12.587852722123218,-0.0,-100.70282177698574,-12.587852722123218,113.29067449910896
-62.93926361061609,-25.175705444246436,12.587852722123218,12.587852722123218,-37.763558166369656,-12.587852722123218,138.4663799433554,25.175705444246436,-0.0,-88.11496905486253,-12.587852722123218,125.87852722123218
-62.93926361061609,-12.587852722123218,-0.0,-0.0,-37.763558166369656,-12.587852722123218,151.05423266547862,25.175705444246436,12.587852722123218,-62.93926361061609,-0.0,138.4663799433554
-62.93926361061609,25.175705444246436,-0.0,-12.587852722123218,-25.175705444246436,-12.587852722123218,151.05423266547862,25.175705444246436,12.587852722123218,-50.35141088849287,-0.0,138.4663799433554
-62.93926361061609,62.93926361061609,-0.0,-12.587852722123218,-25.175705444246436,-0.0,151.05423266547862,37.763558166369656,25.175705444246436,-37.763558166369656,12.587852722123218,151.05423266547862
-62.93926361061609,88.11496905486253,-0.0,-25.175705444246436,-25.175705444246436,-0.0,138.4663799433554,37.763558166369656,25.175705444246436,-37.763558166369656,-0.0,138.4663799433554
-62.93926361061609,100.70282177698574,-0.0,-37.763558166369656,-25.175705444246436,-0.0,125.87852722123218,37.763558166369656,37.763558166369656,-25.175705444246436,-0.0,138.4663799433554
-62.93926361061609,100.70282177698574,12.587852722123218,-50.35141088849287,-25.175705444246436,12.587852722123218,100.70282177698574,37.763558166369656,37.763558166369656,-12.587852722123218,-0.0,138.4663799433554
-62.93926361061609,100.70282177698574,12.587852722123218,-62.93926361061609,-12.587852722123218,25.175705444246436,75.52711633273931,37.763558166369656,37.763558166369656,-12.587852722123218,-0.0,151.05423266547862
-62.93926361061609,100.70282177698574,25.175705444246436,-75.52711633273931,-0.0,25.175705444246436,50.35141088849287,50.35141088849287,50.35141088849287,-12.587852722123218,-0.0,138.4663799433554
-75.52711633273931,88.11496905486253,12.587852722123218,-100.70282177698574,-0.0,37.763558166369656,25.175705444246436,62.93926361061609,50.35141088849287,-12.587852722123218,-0.0,138.4663799433554
-75.52711633273931,88.11496905486253,-0.0,-113.29067449910896,-0.0,37.763558166369656,12.587852722123218,62.93926361061609,50.35141088849287,-12.587852722123218,-0.0,138.4663799433554
-75.52711633273931,88.11496905486253,12.587852722123218,-113.29067449910896,-0.0,50.35141088849287,12.587852722123218,75.52711633273931,62.93926361061609,-25.175705444246436,-0.0,125.87852722123218
-75.52711633273931,75.52711633273931,12.587852722123218,-113.29067449910896,12.587852722123218,75.52711633273931,12.587852722123218,75.52711633273931,75.52711633273931,-25.175705444246436,-0.0,125.87852722123218
-75.52711633273931,62.93926361061609,12.587852722123218,-113.29067449910896,25.175705444246436,75.52711633273931,12.587852722123218,75.52711633273931,88.11496905486253,-25.175705444246436,-0.0,125.87852722123218
-88.11496905486253,37.763558166369656,25.175705444246436,-100.70282177698574,25.175705444246436,75.52711633273931,12.587852722123218,75.52711633273931,88.11496905486253,-25.175705444246436,-0.0,125.87852722123218
-88.11496905486253,25.175705444246436,37.763558166369656,-88.11496905486253,25.175705444246436,62.93926361061609,12.587852722123218,62.93926361061609,100.70282177698574,-25.175705444246436,-12.587852722123218,125.87852722123218
-75.52711633273931,-0.0,37.763558166369656,-88.11496905486253,25.175705444246436,50.35141088849287,25.175705444246436,50.35141088849287,113.29067449910896,-25.175705444246436,-12.587852722123218,113.29067449910896
-75.52711633273931,-12.587852722123218,25.175705444246436,-62.93926361061609,12.587852722123218,37.763558166369656,25.175705444246436,37.763558166369656,113.29067449910896,-25.175705444246436,-25.175705444246436,113.29067449910896
-62.93926361061609,-12.587852722123218,25.175705444246436,-37.763558166369656,12.587852722123218,37.763558166369656,25.175705444246436,25.175705444246436,125.87852722123218,-25.175705444246436,-25.175705444246436,113.29067449910896
-62.93926361061609,-0.0,25.175705444246436,-25.175705444246436,-0.0,37.763558166369656,37.763558166369656,25.175705444246436,125.87852722123218,-25.175705444246436,-25.175705444246436,100.70282177698574
-62.93926361061609,-0.0,25.175705444246436,-12.587852722123218,12.587852722123218,25.175705444246436,50.35141088849287,37.763558166369656,125.87852722123218,-25.175705444246436,-25.175705444246436,88.11496905486253
-50.35141088849287,-0.0,12.587852722123218,12.587852722123218,12.587852722123218,12.587852722123218,62.93926361061609,25.175705444246436,113.29067449910896,-25.175705444246436,-37.763558166369656,88.11496905486253
-37.763558166369656,-12.587852722123218,-0.0,25.175705444246436,-0.0,-12.587852722123218,50.35141088849287,12.587852722123218,88.11496905486253,-25.175705444246436,-37.763558166369656,100.70282177698574
-37.763558166369656,-25.175705444246436,-25.175705444246436,37.763558166369656,-12.587852722123218,-25.175705444246436,62.93926361061609,-0.0,88.11496905486253,-25.175705444246436,-37.763558166369656,100.70282177698574
-25.175705444246436,-25.175705444246436,-12.587852722123218,50.35141088849287,-12.587852722123218,-37.763558166369656,62.93926361061609,-0.0,75.52711633273931,-25.175705444246436,-37.763558166369656,100.70282177698574
-0.0,-25.175705444246436,176.22993810972505,50.35141088849287,-12.587852722123218,-62.93926361061609,62.93926361061609,-12.587852722123218,50.35141088849287,-25.175705444246436,-37.763558166369656,100.70282177698574
25.175705444246436,-0.0,528.6898143291752,50.35141088849287,-12.587852722123218,-62.93926361061609,62.93926361061609,-12.587852722123218,37.763558166369656,-25.175705444246436,-37.763558166369656,100.70282177698574
37.763558166369656,50.35141088849287,969.2646596034878,62.93926361061609,-12.587852722123218,-62.93926361061609,62.93926361061609,-12.587852722123218,37.763558166369656,-25.175705444246436,-25.175705444246436,100.70282177698574
37.763558166369656,100.70282177698574,1309.1366831008147,62.93926361061609,-25.175705444246436,-62.93926361061609,62.93926361061609,-0.0,25.175705444246436,-25.175705444246436,-12.587852722123218,113.29067449910896
50.35141088849287,138.4663799433554,1296.5488303786915,62.93926361061609,-25.175705444246436,-75.52711633273931,75.52711633273931,-0.0,12.587852722123218,-25.175705444246436,-12.587852722123218,113.29067449910896
62.93926361061609,276.9327598867108,956.6768068813645,62.93926361061609,-12.587852722123218,-75.52711633273931,75.52711633273931,-12.587852722123218,-0.0,-25.175705444246436,-12.587852722123218,125.87852722123218
50.35141088849287,503.5141088849287,528.6898143291752,50.35141088849287,-25.175705444246436,-75.52711633273931,62.93926361061609,-12.587852722123218,-0.0,-25.175705444246436,-0.0,125.87852722123218
37.763558166369656,843.3861323822556,188.81779083184827,-0.0,12.587852722123218,-62.93926361061609,62.93926361061609,-25.175705444246436,-12.587852722123218,-12.587852722123218,-0.0,125.87852722123218
25.175705444246436,1221.0217140459522,-12.587852722123218,-62.93926361061609,50.35141088849287,-62.93926361061609,-12.587852722123218,-25.175705444246436,-25.175705444246436,-0.0,12.587852722123218,138.4663799433554
12.587852722123218,1422.4273575999237,100.70282177698574,-113.29067449910896,62.93926361061609,-62.93926361061609,-188.81779083184827,-25.175705444246436,-25.175705444246436,12.587852722123218,37.763558166369656,163.64208538760184
-0.0,1422.4273575999237,163.64208538760184,-151.05423266547862,12.587852722123218,-50.35141088849287,-402.811287107943,-25.175705444246436,-25.175705444246436,12.587852722123218,50.35141088849287,176.22993810972505
-12.587852722123218,1120.3188922689665,88.11496905486253,-188.81779083184827,-188.81779083184827,-25.175705444246436,-667.1561942725306,-25.175705444246436,-25.175705444246436,12.587852722123218,62.93926361061609,188.81779083184827
-37.763558166369656,679.7440469946538,62.93926361061609,-276.9327598867108,-465.75055071855905,12.587852722123218,-981.852512325611,-25.175705444246436,-25.175705444246436,25.175705444246436,62.93926361061609,188.81779083184827
-50.35141088849287,302.10846533095724,37.763558166369656,-440.5748452743126,-717.5076051610234,113.29067449910896,-1258.7852722123218,25.175705444246436,-25.175705444246436,37.763558166369656,75.52711633273931,201.4056435539715
-62.93926361061609,151.05423266547862,12.587852722123218,-679.7440469946538,-742.6833106052699,352.4598762194501,-1258.7852722123218,163.64208538760184,-25.175705444246436,50.35141088849287,75.52711633273931,213.9934962760947
-88.11496905486253,62.93926361061609,-0.0,-868.561837826502,-478.33840344068227,704.9197524389002,-1158.082450435336,62.93926361061609,-37.763558166369656,62.93926361061609,88.11496905486253,213.9934962760947
-88.11496905486253,-25.175705444246436,-0.0,-881.1496905486252,-138.4663799433554,1120.3188922689665,-868.561837826502,-402.811287107943,-37.763558166369656,62.93926361061609,88.11496905486253,201.4056435539715
-88.11496905486253,-50.35141088849287,-0.0,-667.1561942725306,88.11496905486253,1384.663799433554,-553.8655197734216,-1158.082450435336,37.763558166369656,62.93926361061609,88.11496905486253,201.4056435539715
-88.11496905486253,-75.52711633273931,-0.0,-377.63558166369654,176.22993810972505,1321.724535822938,-302.10846533095724,-1988.8807300954684,188.81779083184827,62.93926361061609,75.52711633273931,188.81779083184827
-88.11496905486253,-88.11496905486253,-12.587852722123218,-138.4663799433554,62.93926361061609,994.4403650477342,-113.29067449910896,-289.520612608834,125.87852722123218,62.93926361061609,50.35141088849287,176.22993810972505
-100.70282177698574,-88.11496905486253,-12.587852722123218,-0.0,-75.52711633273931,553.8655197734216,-12.587852722123218,1409.8395048778004,-327.2841707752037,62.93926361061609,37.763558166369656,163.64208538760184
-100.70282177698574,-88.11496905486253,-0.0,75.52711633273931,-75.52711633273931,188.81779083184827,50.35141088849287,1195.8460086017058,994.4403650477342,62.93926361061609,25.175705444246436,138.4663799433554
-100.70282177698574,-88.11496905486253,-0.0,100.70282177698574,-62.93926361061609,50.35141088849287,88.11496905486253,1095.14318682472,352.4598762194501,50.35141088849287,-0.0,125.87852722123218
-100.70282177698574,-88.11496905486253,-0.0,100.70282177698574,-62.93926361061609,37.763558166369656,100.70282177698574,1246.1974194901986,-327.2841707752037,37.763558166369656,-0.0,113.29067449910896
-75.52711633273931,-88.11496905486253,-12.587852722123218,100.70282177698574,-50.35141088849287,-37.763558166369656,113.29067449910896,1422.4273575999237,-730.0954578831467,25.175705444246436,-0.0,113.29067449910896
-12.587852722123218,-75.52711633273931,-12.587852722123218,88.11496905486253,-37.763558166369656,-62.93926361061609,113.29067449910896,-1195.8460086017058,-730.0954578831467,12.587852722123218,-0.0,113.29067449910896
62.93926361061609,-75.52711633273931,-12.587852722123218,88.11496905486253,-37.763558166369656,-62.93926361061609,113.29067449910896,-793.0347214937627,-352.4598762194501,-0.0,-12.587852722123218,113.29067449910896
100.70282177698574,-75.52711633273931,-12.587852722123218,100.70282177698574,-37.763558166369656,-75.52711633273931,125.87852722123218,-478.33840344068227,151.05423266547862,-0.0,-12.587852722123218,113.29067449910896
37.763558166369656,-62.93926361061609,-12.587852722123218,100.70282177698574,-25.175705444246436,-75.52711633273931,125.87852722123218,-276.9327598867108,654.5683415504074,-12.587852722123218,-12.587852722123218,113.29067449910896
-88.11496905486253,-62.93926361061609,-12.587852722123218,88.11496905486253,-25.175705444246436,-88.11496905486253,113.29067449910896,-138.4663799433554,1082.5553341025968,-25.175705444246436,-0.0,113.29067449910896
-188.81779083184827,-62.93926361061609,-25.175705444246436,88.11496905486253,-25.175705444246436,-88.11496905486253,113.29067449910896,-50.35141088849287,-855.9739851043788,-25.175705444246436,-0.0,113.29067449910896
-138.4663799433554,-62.93926361061609,-25.175705444246436,75.52711633273931,-12.587852722123218,-100.70282177698574,113.29067449910896,-0.0,-490.9262561628055,-25.175705444246436,-0.0,113.29067449910896
113.29067449910896,-62.93926361061609,-25.175705444246436,75.52711633273931,-12.587852722123218,-100.70282177698574,113.29067449910896,25.175705444246436,-276.9327598867108,-25.175705444246436,-12.587852722123218,113.29067449910896
402.811287107943,-62.93926361061609,-37.763558166369656,75.52711633273931,-25.175705444246436,-88.11496905486253,125.87852722123218,25.175705444246436,-138.4663799433554,-25.175705444246436,12.587852722123218,100.70282177698574
553.8655197734216,-62.93926361061609,-37.763558166369656,75.52711633273931,-25.175705444246436,-100.70282177698574,113.29067449910896,25.175705444246436,-50.35141088849287,-25.175705444246436,62.93926361061609,125.87852722123218
453.16269799643584,-75.52711633273931,-37.763558166369656,75.52711633273931,-12.587852722123218,-100.70282177698574,113.29067449910896,37.763558166369656,-0.0,-37.763558166369656,188.81779083184827,213.9934962760947
251.75705444246435,-75.52711633273931,-37.763558166369656,75.52711633273931,-12.587852722123218,-88.11496905486253,113.29067449910896,37.763558166369656,12.587852722123218,-37.763558166369656,440.5748452743126,415.3991398300662
-0.0,-75.52711633273931,-50.35141088849287,62.93926361061609,-25.175705444246436,-88.11496905486253,113.29067449910896,37.763558166369656,25.175705444246436,-12.587852722123218,805.622574215886,742.6833106052699
-151.05423266547862,-62.93926361061609,-62.93926361061609,62.93926361061609,-12.587852722123218,-88.11496905486253,113.29067449910896,37.763558166369656,37.763558166369656,50.35141088849287,1296.5488303786915,1195.8460086017058
-176.22993810972505,-62.93926361061609,-75.52711633273931,62.93926361061609,-12.587852722123218,-88.11496905486253,113.29067449910896,50.35141088849287,50.35141088849287,113.29067449910896,1913.353613762729,1711.9479702087576
-163.64208538760184,-75.52711633273931,-75.52711633273931,75.52711633273931,-0.0,-88.11496905486253,125.87852722123218,50.35141088849287,50.35141088849287,188.81779083184827,2467.219133536151,2190.28637364944
-163.64208538760184,-75.52711633273931,-75.52711633273931,75.52711633273931,-0.0,-75.52711633273931,125.87852722123218,50.35141088849287,50.35141088849287,339.8720234973269,2744.1518934228616,2442.0434280919044
-151.05423266547862,-62.93926361061609,-88.11496905486253,75.52711633273931,-0.0,-88.11496905486253,113.29067449910896,50.35141088849287,50.35141088849287,528.6898143291752,2618.2733662016294,2366.516311759165
-151.05423266547862,-75.52711633273931,-88.11496905486253,75.52711633273931,-0.0,-100.70282177698574,113.29067449910896,62.93926361061609,62.93926361061609,755.2711633273931,2177.6985209273166,1976.2928773733452
-138.4663799433554,-75.52711633273931,-100.70282177698574,75.52711633273931,-0.0,-100.70282177698574,113.29067449910896,62.93926361061609,62.93926361061609,1019.6160704919806,1409.8395048778004,1447.60306304417
-138.4663799433554,-75.52711633273931,-125.87852722123218,75.52711633273931,-0.0,-100.70282177698574,113.29067449910896,62.93926361061609,62.93926361061609,1221.0217140459522,704.9197524389002,994.4403650477342
-138.4663799433554,-62.93926361061609,-125.87852722123218,75.52711633273931,12.587852722123218,-100.70282177698574,113.29067449910896,62.93926361061609,75.52711633273931,1246.1974194901986,264.3449071645876,629.3926361061609
-125.87852722123218,-62.93926361061609,-138.4663799433554,62.93926361061609,12.587852722123218,-100.70282177698574,113.29067449910896,62.93926361061609,75.52711633273931,1145.494597713213,37.763558166369656,339.8720234973269
-125.87852722123218,-62.93926361061609,-151.05423266547862,62.93926361061609,12.587852722123218,-113.29067449910896,113.29067449910896,75.52711633273931,88.11496905486253,956.6768068813645,-37.763558166369656,176.22993810972505
-125.87852722123218,-75.52711633273931,-176.22993810972505,62.93926361061609,25.175705444246436,-113.29067449910896,113.29067449910896,75.52711633273931,88.11496905486253,516.101961607052,-50.35141088849287,88.11496905486253
-125.87852722123218,-75.52711633273931,-201.4056435539715,62.93926361061609,37.763558166369656,-100.70282177698574,113.29067449910896,88.11496905486253,88.11496905486253,-37.763558166369656,-62.93926361061609,50.35141088849287
-125.87852722123218,-75.52711633273931,-226.58134899821792,62.93926361061609,37.763558166369656,-113.29067449910896,113.29067449910896,88.11496905486253,100.70282177698574,-239.16920172034114,-62.93926361061609,37.763558166369656
-113.29067449910896,-62.93926361061609,-264.3449071645876,62.93926361061609,37.763558166369656,-125.87852722123218,113.29067449910896,100.70282177698574,100.70282177698574,-239.16920172034114,-62.93926361061609,25.175705444246436
-100.70282177698574,-62.93926361061609,-289.520612608834,50.35141088849287,50.35141088849287,-125.87852722123218,113.29067449910896,100.70282177698574,100.70282177698574,-163.64208538760184,-75.52711633273931,12.587852722123218
-100.70282177698574,-75.52711633273931,-302.10846533095724,50.35141088849287,62.93926361061609,-125.87852722123218,113.29067449910896,113.29067449910896,113.29067449910896,-113.29067449910896,-75.52711633273931,-0.0
-113.29067449910896,-75.52711633273931,-327.2841707752037,37.763558166369656,75.52711633273931,-125.87852722123218,113.29067449910896,125.87852722123218,125.87852722123218,-75.52711633273931,-75.52711633273931,-0.0
-113.29067449910896,-75.52711633273931,-327.2841707752037,37.763558166369656,88.11496905486253,-138.4663799433554,113.29067449910896,125.87852722123218,138.4663799433554,-62.93926361061609,-75.52711633273931,12.587852722123218
-100.70282177698574,-88.11496905486253,-327.2841707752037,25.175705444246436,100.70282177698574,-138.4663799433554,113.29067449910896,138.4663799433554,138.4663799433554,-62.93926361061609,-75.52711633273931,-0.0
-100.70282177698574,-88.11496905486253,-327.2841707752037,12.587852722123218,125.87852722123218,-151.05423266547862,113.29067449910896,163.64208538760184,138.4663799433554,-62.93926361061609,-75.52711633273931,-0.0
-100.70282177698574,-88.11496905486253,-314.69631805308046,-0.0,138.4663799433554,-151.05423266547862,113.29067449910896,176.22993810972505,151.05423266547862,-50.35141088849287,-75.52711633273931,12.587852722123218
-100.70282177698574,-88.11496905486253,-289.520612608834,-0.0,163.64208538760184,-163.64208538760184,113.29067449910896,201.4056435539715,163.64208538760184,-62.93926361061609,-75.52711633273931,12.587852722123218
-88.11496905486253,-75.52711633273931,-239.16920172034114,-12.587852722123218,188.81779083184827,-163.64208538760184,100.70282177698574,239.16920172034114,176.22993810972505,-62.93926361061609,-75.52711633273931,-0.0
-88.11496905486253,-75.52711633273931,-201.4056435539715,-25.175705444246436,201.4056435539715,-176.22993810972505,100.70282177698574,264.3449071645876,188.81779083184827,-62.93926361061609,-75.52711633273931,-0.0
-88.11496905486253,-75.52711633273931,-151.05423266547862,-25.175705444246436,213.9934962760947,-188.81779083184827,100.70282177698574,289.520612608834,201.4056435539715,-50.35141088849287,-75.52711633273931,-0.0
-88.11496905486253,-62.93926361061609,-113.29067449910896,-37.763558166369656,226.58134899821792,-201.4056435539715,88.11496905486253,339.8720234973269,226.58134899821792,-37.763558166369656,-75.52711633273931,-0.0
-75.52711633273931,-62.93926361061609,-88.11496905486253,-50.35141088849287,251.75705444246435,-226.58134899821792,75.52711633273931,377.63558166369654,239.16920172034114,-37.763558166369656,-75.52711633273931,-0.0
-75.52711633273931,-37.763558166369656,-75.52711633273931,-50.35141088849287,264.3449071645876,-226.58134899821792,75.52711633273931,415.3991398300662,264.3449071645876,-37.763558166369656,-75.52711633273931,-0.0
-62.93926361061609,-25.175705444246436,-62.93926361061609,-50.35141088849287,264.3449071645876,-226.58134899821792,75.52711633273931,453.16269799643584,289.520612608834,-25.175705444246436,-75.52711633273931,-0.0
-62.93926361061609,-12.587852722123218,-50.35141088849287,-50.35141088849287,264.3449071645876,-239.16920172034114,62.93926361061609,503.5141088849287,314.69631805308046,-25.175705444246436,-75.52711633273931,-12.587852722123218
-50.35141088849287,-12.587852722123218,-50.35141088849287,-62.93926361061609,251.75705444246435,-251.75705444246435,62.93926361061609,541.2776670512984,339.8720234973269,-25.175705444246436,-75.52711633273931,-12.587852722123218
-37.763558166369656,-12.587852722123218,-50.35141088849287,-62.93926361061609,239.16920172034114,-251.75705444246435,62.93926361061609,553.8655197734216,365.0477289415733,-25.175705444246436,-88.11496905486253,-12.587852722123218
-37.763558166369656,-0.0,-37.763558166369656,-62.93926361061609,201.4056435539715,-239.16920172034114,50.35141088849287,591.6290779397913,390.22343438581976,-25.175705444246436,-88.11496905486253,-12.587852722123218
-25.175705444246436,-12.587852722123218,-37.763558166369656,-62.93926361061609,151.05423266547862,-226.58134899821792,50.35141088849287,604.2169306619145,440.5748452743126,-25.175705444246436,-75.52711633273931,-12.587852722123218
-12.587852722123218,-25.175705444246436,-37.763558166369656,-50.35141088849287,113.29067449910896,-201.4056435539715,50.35141088849287,604.2169306619145,453.16269799643584,-25.175705444246436,-88.11496905486253,-25.175705444246436
-0.0,-37.763558166369656,-25.175705444246436,-50.35141088849287,88.11496905486253,-151.05423266547862,50.35141088849287,591.6290779397913,465.75055071855905,-25.175705444246436,-88.11496905486253,-25.175705444246436
12.587852722123218,-37.763558166369656,-25.175705444246436,-37.763558166369656,50.35141088849287,-113.29067449910896,50.35141088849287,566.4533724955448,478.33840344068227,-25.175705444246436,-88.11496905486253,-25.175705444246436
37.763558166369656,-37.763558166369656,-25.175705444246436,-25.175705444246436,25.175705444246436,-88.11496905486253,50.35141088849287,490.9262561628055,490.9262561628055,-12.587852722123218,-100.70282177698574,-25.175705444246436
50.35141088849287,-37.763558166369656,-25.175705444246436,-25.175705444246436,-0.0,-62.93926361061609,50.35141088849287,390.22343438581976,490.9262561628055,-12.587852722123218,-100.70282177698574,-37.763558166369656
75.52711633273931,-50.35141088849287,-25.175705444246436,-12.587852722123218,-0.0,-50.35141088849287,50.35141088849287,302.10846533095724,478.33840344068227,-12.587852722123218,-100.70282177698574,-37.763558166369656
100.70282177698574,-50.35141088849287,-25.175705444246436,-12.587852722123218,-12.587852722123218,-25.175705444246436,50.35141088849287,201.4056435539715,465.75055071855905,-12.587852722123218,-100.70282177698574,-37.763558166369656
125.87852722123218,-37.763558166369656,-12.587852722123218,-12.587852722123218,-25.175705444246436,-12.587852722123218,62.93926361061609,125.87852722123218,415.3991398300662,-12.587852722123218,-113.29067449910896,-50.35141088849287
138.4663799433554,-37.763558166369656,-0.0,-0.0,-25.175705444246436,-0.0,62.93926361061609,50.35141088849287,339.8720234973269,-0.0,-138.4663799433554,-62.93926361061609
163.64208538760184,-37.763558166369656,-0.0,-0.0,-25.175705444246436,-0.0,62.93926361061609,-0.0,289.520612608834,-0.0,-138.4663799433554,-88.11496905486253
176.22993810972505,-37.763558166369656,25.175705444246436,-12.587852722123218,-25.175705444246436,-0.0,75.52711633273931,-25.175705444246436,213.9934962760947,-0.0,-151.05423266547862,-100.70282177698574
188.81779083184827,-37.763558166369656,37.763558166369656,-0.0,-25.175705444246436,-0.0,75.52711633273931,-50.35141088849287,151.05423266547862,-0.0,-163.64208538760184,-113.29067449910896
188.81779083184827,-25.175705444246436,37.763558166369656,-0.0,-25.175705444246436,-0.0,75.52711633273931,-62.93926361061609,88.11496905486253,-0.0,-176.22993810972505,-125.87852722123218
188.81779083184827,-25.175705444246436,37.763558166369656,-0.0,-25.175705444246436,-0.0,75.52711633273931,-75.52711633273931,62.93926361061609,-0.0,-201.4056435539715,-138.4663799433554
188.81779083184827,-25.175705444246436,37.763558166369656,-0.0,-25.175705444246436,-0.0,75.52711633273931,-75.52711633273931,50.35141088849287,-0.0,-226.58134899821792,-163.64208538760184
176.22993810972505,-12.587852722123218,37.763558166369656,-0.0,-37.763558166369656,-0.0,75.52711633273931,-75.52711633273931,25.175705444246436,-0.0,-239.16920172034114,-188.81779083184827
151.05423266547862,-0.0,25.175705444246436,-0.0,-37.763558166369656,-0.0,62.93926361061609,-88.11496905486253,12.587852722123218,-0.0,-264.3449071645876,-201.4056435539715
125.87852722123218,-0.0,37.763558166369656,-0.0,-37.763558166369656,-0.0,62.93926361061609,-88.11496905486253,-0.0,-0.0,-276.9327598867108,-201.4056435539715
88.11496905486253,12.587852722123218,50.35141088849287,12.587852722123218,-37.763558166369656,-0.0,75.52711633273931,-88.11496905486253,-0.0,-0.0,-289.520612608834,-213.9934962760947
50.35141088849287,12.587852722123218,37.763558166369656,12.587852722123218,-37.763558166369656,-0.0,62.93926361061609,-88.11496905486253,-0.0,-12.587852722123218,-289.520612608834,-213.9934962760947
25.175705444246436,-0.0,37.763558166369656,25.175705444246436,-37.763558166369656,-0.0,62.93926361061609,-75.52711633273931,-0.0,-25.175705444246436,-289.520612608834,-201.4056435539715
-0.0,-0.0,50.35141088849287,12.587852722123218,-37.763558166369656,-0.0,75.52711633273931,-75.52711633273931,-0.0,-25.175705444246436,-289.520612608834,-176.22993810972505
-12.587852722123218,-0.0,50.35141088849287,12.587852722123218,-37.763558166369656,-0.0,75.52711633273931,-75.52711633273931,-0.0,-37.763558166369656,-264.3449071645876,-151.05423266547862
-25.175705444246436,-0.0,50.35141088849287,12.587852722123218,-37.763558166369656,-0.0,75.52711633273931,-75.52711633273931,-0.0,-37.763558166369656,-226.58134899821792,-113.29067449910896
-37.763558166369656,-0.0,62.93926361061609,12.587852722123218,-37.763558166369656,-0.0,75.52711633273931,-75.52711633273931,-0.0,-50.35141088849287,-176.22993810972505,-62.93926361061609
-50.35141088849287,-0.0,50.35141088849287,12.587852722123218,-25.175705444246436,-12.587852722123218,75.52711633273931,-62.93926361061609,-0.0,-62.93926361061609,-113.29067449910896,-12.587852722123218
-62.93926361061609,12.587852722123218,50.35141088849287,12.587852722123218,-25.175705444246436,-12.587852722123218,75.52711633273931,-62.93926361061609,12.587852722123218,-62.93926361061609,-75.52711633273931,25.175705444246436
-62.93926361061609,25.175705444246436,62.93926361061609,12.587852722123218,-25.175705444246436,-12.587852722123218,75.52711633273931,-62.93926361061609,12.587852722123218,-62.93926361061609,-37.763558166369656,50.35141088849287
-75.52711633273931,37.763558166369656,75.52711633273931,-0.0,-25.175705444246436,-12.587852722123218,75.52711633273931,-50.35141088849287,12.587852722123218,-62.93926361061609,-0.0,75.52711633273931
-75.52711633273931,37.763558166369656,75.52711633273931,-12.587852722123218,-25.175705444246436,-12.587852722123218,88.11496905486253,-50.35141088849287,25.175705444246436,-62.93926361061609,12.587852722123218,88.11496905486253
-62.93926361061609,50.35141088849287,50.35141088849287,-25.175705444246436,-25.175705444246436,-12.587852722123218,100.70282177698574,-50.35141088849287,25.175705444246436,-50.35141088849287,25.175705444246436,100.70282177698574
-75.52711633273931,62.93926361061609,37.763558166369656,-25.175705444246436,-25.175705444246436,-12.587852722123218,100.70282177698574,-37.763558166369656,25.175705444246436,-37.763558166369656,37.763558166369656,113.29067449910896
-75.52711633273931,88.11496905486253,37.763558166369656,-37.763558166369656,-12.587852722123218,-0.0,100.70282177698574,-37.763558166369656,37.763558166369656,-25.175705444246436,37.763558166369656,113.29067449910896
-75.52711633273931,113.29067449910896,37.763558166369656,-50.35141088849287,-12.587852722123218,12.587852722123218,100.70282177698574,-25.175705444246436,37.763558166369656,-12.587852722123218,50.35141088849287,125.87852722123218
-75.52711633273931,113.29067449910896,25.175705444246436,-62.93926361061609,-0.0,25.175705444246436,88.11496905486253,-25.175705444246436,50.35141088849287,-0.0,50.35141088849287,125.87852722123218
-75.52711633273931,113.29067449910896,37.763558166369656,-88.11496905486253,-0.0,25.175705444246436,75.52711633273931,-25.175705444246436,50.35141088849287,-0.0,50.35141088849287,125.87852722123218
-75.52711633273931,113.29067449910896,37.763558166369656,-100.70282177698574,-0.0,37.763558166369656,50.35141088849287,-25.175705444246436,50.35141088849287,12.587852722123218,50.35141088849287,125.87852722123218
-88.11496905486253,113.29067449910896,37.763558166369656,-113.29067449910896,-0.0,50.35141088849287,25.175705444246436,-12.587852722123218,62.93926361061609,12.587852722123218,62.93926361061609,125.87852722123218
-88.11496905486253,100.70282177698574,25.175705444246436,-113.29067449910896,12.587852722123218,62.93926361061609,-0.0,-0.0,62.93926361061609,12.587852722123218,50.35141088849287,113.29067449910896
-88.11496905486253,88.11496905486253,12.587852722123218,-125.87852722123218,25.175705444246436,75.52711633273931,-12.587852722123218,-0.0,62.93926361061609,-0.0,50.35141088849287,113.29067449910896
-88.11496905486253,62.93926361061609,-0.0,-125.87852722123218,25.175705444246436,88.11496905486253,-12.587852722123218,12.587852722123218,75.52711633273931,-0.0,50.35141088849287,113.29067449910896
-88.11496905486253,50.35141088849287,-0.0,-113.29067449910896,25.175705444246436,75.52711633273931,-12.587852722123218,-0.0,88.11496905486253,12.587852722123218,50.35141088849287,113.29067449910896
-88.11496905486253,37.763558166369656,12.587852722123218,-100.70282177698574,12.587852722123218,75.52711633273931,-0.0,-0.0,100.70282177698574,12.587852722123218,50.35141088849287,113.29067449910896
-100.70282177698574,12.587852722123218,12.587852722123218,-88.11496905486253,-0.0,75.52711633273931,-0.0,-0.0,113.29067449910896,-0.0,37.763558166369656,100.70282177698574
-88.11496905486253,-12.587852722123218,12.587852722123218,-62.93926361061609,-0.0,62.93926361061609,12.587852722123218,-12.587852722123218,125.87852722123218,-0.0,37.763558166369656,100.70282177698574
-100.70282177698574,-37.763558166369656,12.587852722123218,-50.35141088849287,-12.587852722123218,50.35141088849287,12.587852722123218,-37.763558166369656,125.87852722123218,-0.0,37.763558166369656,100.70282177698574
-100.70282177698574,-50.35141088849287,12.587852722123218,-37.763558166369656,-12.587852722123218,50.35141088849287,25.175705444246436,-37.763558166369656,125.87852722123218,-0.0,37.763558166369656,88.11496905486253
-100.70282177698574,-62.93926361061609,12.587852722123218,-12.587852722123218,-0.0,37.763558166369656,25.175705444246436,-37.763558166369656,125.87852722123218,-0.0,25.175705444246436,88.11496905486253
-88.11496905486253,-50.35141088849287,12.587852722123218,-0.0,-12.587852722123218,25.175705444246436,37.763558166369656,-37.763558166369656,125.87852722123218,-0.0,25.175705444246436,88.11496905486253
-88.11496905486253,-50.35141088849287,12.587852722123218,12.587852722123218,-12.587852722123218,-0.0,50.35141088849287,-50.35141088849287,125.87852722123218,-0.0,25.175705444246436,88.11496905486253
-75.52711633273931,-50.35141088849287,12.587852722123218,25.175705444246436,-12.587852722123218,-12.587852722123218,62.93926361061609,-50.35141088849287,100.70282177698574,-0.0,25.175705444246436,75.52711633273931
-75.52711633273931,-50.35141088849287,-0.0,25.175705444246436,-25.175705444246436,-25.175705444246436,75.52711633273931,-50.35141088849287,88.11496905486253,-0.0,12.587852722123218,75.52711633273931
-75.52711633273931,-62.93926361061609,-12.587852722123218,25.175705444246436,-25.175705444246436,-25.175705444246436,75.52711633273931,-62.93926361061609,88.11496905486253,-0.0,-0.0,75.52711633273931
-62.93926361061609,-62.93926361061609,-25.175705444246436,25.175705444246436,-25.175705444246436,-37.763558166369656,75.52711633273931,-75.52711633273931,62.93926361061609,-0.0,-0.0,62.93926361061609
-50.35141088849287,-62.93926361061609,113.29067449910896,37.763558166369656,-25.175705444246436,-37.763558166369656,75.52711633273931,-75.52711633273931,37.763558166369656,-0.0,12.587852722123218,62.93926361061609
-25.175705444246436,-50.35141088849287,427.9869925521894,37.763558166369656,-25.175705444246436,-25.175705444246436,75.52711633273931,-62.93926361061609,37.763558166369656,-0.0,-0.0,62.93926361061609
-12.587852722123218,-0.0,855.9739851043788,37.763558166369656,-25.175705444246436,-37.763558166369656,75.52711633273931,-62.93926361061609,37.763558166369656,-0.0,-0.0,62.93926361061609
-12.587852722123218,62.93926361061609,1246.1974194901986,37.763558166369656,-25.175705444246436,-37.763558166369656,75.52711633273931,-62.93926361061609,25.175705444246436,-0.0,12.587852722123218,62.93926361061609
-0.0,113.29067449910896,1346.9002412671844,-0.0,-12.587852722123218,-25.175705444246436,88.11496905486253,-62.93926361061609,-0.0,-12.587852722123218,12.587852722123218,75.52711633273931
12.587852722123218,226.58134899821792,1032.203923214104,-62.93926361061609,25.175705444246436,-25.175705444246436,88.11496905486253,-62.93926361061609,-0.0,-12.587852722123218,25.175705444246436,88.11496905486253
25.175705444246436,440.5748452743126,566.4533724955448,-100.70282177698574,37.763558166369656,-25.175705444246436,88.11496905486253,-62.93926361061609,-0.0,-0.0,25.175705444246436,88.11496905486253
12.587852722123218,780.4468687716395,201.4056435539715,-151.05423266547862,12.587852722123218,-12.587852722123218,100.70282177698574,-75.52711633273931,-12.587852722123218,-0.0,37.763558166369656,88.11496905486253
-0.0,1183.2581558795825,-12.587852722123218,-188.81779083184827,-151.05423266547862,12.587852722123218,50.35141088849287,-75.52711633273931,-12.587852722123218,-0.0,37.763558166369656,100.70282177698574
-25.175705444246436,1485.3666212105397,75.52711633273931,-251.75705444246435,-427.9869925521894,25.175705444246436,-100.70282177698574,-75.52711633273931,-12.587852722123218,-0.0,50.35141088849287,88.11496905486253
-50.35141088849287,1435.0152103220469,151.05423266547862,-415.3991398300662,-692.331899716777,100.70282177698574,-327.2841707752037,-75.52711633273931,-12.587852722123218,12.587852722123218,50.35141088849287,100.70282177698574
-62.93926361061609,1296.5488303786915,100.70282177698574,-654.5683415504074,-793.0347214937627,314.69631805308046,-566.4533724955448,-75.52711633273931,-25.175705444246436,25.175705444246436,75.52711633273931,125.87852722123218
-75.52711633273931,767.8590160495163,88.11496905486253,-843.3861323822556,-579.041225217668,641.9804888282841,-893.7375432707485,-12.587852722123218,-25.175705444246436,25.175705444246436,88.11496905486253,151.05423266547862
-88.11496905486253,377.63558166369654,75.52711633273931,-893.7375432707485,-251.75705444246435,1069.9674813804736,-1195.8460086017058,113.29067449910896,-25.175705444246436,37.763558166369656,100.70282177698574,163.64208538760184
-100.70282177698574,176.22993810972505,50.35141088849287,-717.5076051610234,12.587852722123218,1397.2516521556772,-1246.1974194901986,37.763558166369656,-25.175705444246436,37.763558166369656,113.29067449910896,163.64208538760184
-113.29067449910896,75.52711633273931,25.175705444246436,-427.9869925521894,151.05423266547862,1397.2516521556772,-1095.14318682472,-415.3991398300662,-25.175705444246436,37.763558166369656,125.87852722123218,176.22993810972505
-125.87852722123218,-12.587852722123218,25.175705444246436,-163.64208538760184,113.29067449910896,1107.7310395468432,-944.0889541592413,-1145.494597713213,37.763558166369656,50.35141088849287,125.87852722123218,176.22993810972505
-125.87852722123218,-37.763558166369656,25.175705444246436,-12.587852722123218,-25.175705444246436,667.1561942725306,-629.3926361061609,-1976.2928773733452,201.4056435539715,62.93926361061609,125.87852722123218,176.22993810972505
-125.87852722123218,-50.35141088849287,12.587852722123218,62.93926361061609,-62.93926361061609,239.16920172034114,-339.8720234973269,-295.81453896989564,163.64208538760184,75.52711633273931,125.87852722123218,176.22993810972505
-113.29067449910896,-75.52711633273931,-0.0,88.11496905486253,-37.763558166369656,12.587852722123218,-125.87852722123218,1384.663799433554,-264.3449071645876,62.93926361061609,125.87852722123218,176.22993810972505
-125.87852722123218,-88.11496905486253,-0.0,100.70282177698574,-62.93926361061609,12.587852722123218,-0.0,1132.9067449910897,1007.0282177698574,75.52711633273931,125.87852722123218,176.22993810972505
-125.87852722123218,-75.52711633273931,-12.587852722123218,88.11496905486253,-37.763558166369656,-37.763558166369656,75.52711633273931,1019.6160704919806,365.0477289415733,88.11496905486253,113.29067449910896,163.64208538760184
-125.87852722123218,-75.52711633273931,-12.587852722123218,88.11496905486253,-12.587852722123218,-88.11496905486253,113.29067449910896,1170.6703031574593,-302.10846533095724,88.11496905486253,100.70282177698574,138.4663799433554
-125.87852722123218,-88.11496905486253,-25.175705444246436,75.52711633273931,-12.587852722123218,-75.52711633273931,138.4663799433554,1397.2516521556772,-730.0954578831467,88.11496905486253,75.52711633273931,125.87852722123218
-113.29067449910896,-100.70282177698574,-25.175705444246436,88.11496905486253,-12.587852722123218,-75.52711633273931,151.05423266547862,-1208.433861323829,-767.8590160495163,75.52711633273931,62.93926361061609,113.29067449910896
-50.35141088849287,-100.70282177698574,-37.763558166369656,88.11496905486253,-12.587852722123218,-100.70282177698574,151.05423266547862,-793.0347214937627,-390.22343438581976,62.93926361061609,50.35141088849287,88.11496905486253
12.587852722123218,-113.29067449910896,-37.763558166369656,88.11496905486253,-0.0,-100.70282177698574,151.05423266547862,-490.9262561628055,138.4663799433554,50.35141088849287,37.763558166369656,88.11496905486253
75.52711633273931,-113.29067449910896,-37.763558166369656,75.52711633273931,-0.0,-88.11496905486253,163.64208538760184,-302.10846533095724,-1787.475086541497,37.763558166369656,37.763558166369656,88.11496905486253
62.93926361061609,-113.29067449910896,-50.35141088849287,75.52711633273931,-0.0,-100.70282177698574,163.64208538760184,-163.64208538760184,-1309.1366831008147,12.587852722123218,37.763558166369656,88.11496905486253
-37.763558166369656,-113.29067449910896,-50.35141088849287,75.52711633273931,-0.0,-100.70282177698574,176.22993810972505,-75.52711633273931,-855.9739851043788,-0.0,25.175705444246436,88.11496905486253
-151.05423266547862,-125.87852722123218,-62.93926361061609,75.52711633273931,-0.0,-100.70282177698574,176.22993810972505,-37.763558166369656,-490.9262561628055,-12.587852722123218,37.763558166369656,88.11496905486253
-125.87852722123218,-125.87852722123218,-62.93926361061609,75.52711633273931,-0.0,-100.70282177698574,176.22993810972505,-0.0,-276.9327598867108,-25.175705444246436,37.763558166369656,88.11496905486253
75.52711633273931,-125.87852722123218,-62.93926361061609,62.93926361061609,-0.0,-88.11496905486253,188.81779083184827,12.587852722123218,-138.4663799433554,-12.587852722123218,37.763558166369656,88.11496905486253
390.22343438581976,-125.87852722123218,-62.93926361061609,62.93926361061609,-0.0,-88.11496905486253,188.81779083184827,25.175705444246436,-50.35141088849287,-25.175705444246436,37.763558166369656,88.11496905486253
591.6290779397913,-125.87852722123218,-62.93926361061609,75.52711633273931,-0.0,-88.11496905486253,188.81779083184827,25.175705444246436,12.587852722123218,-25.175705444246436,37.763558166369656,88.11496905486253
516.101961607052,-125.87852722123218,-62.93926361061609,75.52711633273931,-0.0,-88.11496905486253,188.81779083184827,37.763558166369656,25.175705444246436,-25.175705444246436,37.763558166369656,75.52711633273931
314.69631805308046,-125.87852722123218,-75.52711633273931,62.93926361061609,12.587852722123218,-100.70282177698574,188.81779083184827,37.763558166369656,37.763558166369656,-25.175705444246436,62.93926361061609,75.52711633273931
50.35141088849287,-125.87852722123218,-75.52711633273931,62.93926361061609,25.175705444246436,-100.70282177698574,201.4056435539715,37.763558166369656,50.35141088849287,-25.175705444246436,138.4663799433554,125.87852722123218
-138.4663799433554,-125.87852722123218,-75.52711633273931,62.93926361061609,25.175705444246436,-100.70282177698574,201.4056435539715,50.35141088849287,50.35141088849287,-25.175705444246436,314.69631805308046,264.3449071645876
-176.22993810972505,-125.87852722123218,-75.52711633273931,62.93926361061609,25.175705444246436,-100.70282177698574,201.4056435539715,50.35141088849287,50.35141088849287,-12.587852722123218,629.3926361061609,528.6898143291752
-176.22993810972505,-125.87852722123218,-75.52711633273931,62.93926361061609,25.175705444246436,-113.29067449910896,201.4056435539715,50.35141088849287,62.93926361061609,25.175705444246436,1044.7917759362272,906.3253959928717
-188.81779083184827,-113.29067449910896,-88.11496905486253,50.35141088849287,25.175705444246436,-113.29067449910896,201.4056435539715,62.93926361061609,62.93926361061609,88.11496905486253,1598.6572957096487,1397.2516521556772
-176.22993810972505,-113.29067449910896,-88.11496905486253,50.35141088849287,25.175705444246436,-113.29067449910896,201.4056435539715,62.93926361061609,62.93926361061609,138.4663799433554,2228.0499318158095,1938.5293192069755
-163.64208538760184,-113.29067449910896,-100.70282177698574,50.35141088849287,25.175705444246436,-100.70282177698574,201.4056435539715,75.52711633273931,75.52711633273931,239.16920172034114,2656.036924367999,2316.164900870672
-163.64208538760184,-100.70282177698574,-100.70282177698574,50.35141088849287,37.763558166369656,-100.70282177698574,201.4056435539715,75.52711633273931,75.52711633273931,402.811287107943,2756.7397461449846,2467.219133536151
-151.05423266547862,-100.70282177698574,-113.29067449910896,50.35141088849287,37.763558166369656,-100.70282177698574,201.4056435539715,88.11496905486253,88.11496905486253,591.6290779397913,2517.5705444246437,2240.637784537933
-163.64208538760184,-100.70282177698574,-125.87852722123218,50.35141088849287,37.763558166369656,-100.70282177698574,201.4056435539715,88.11496905486253,88.11496905486253,843.3861323822556,1925.9414664848523,1762.2993810972505
-151.05423266547862,-88.11496905486253,-151.05423266547862,37.763558166369656,37.763558166369656,-100.70282177698574,201.4056435539715,88.11496905486253,88.11496905486253,1107.7310395468432,1120.3188922689665,1246.1974194901986
-151.05423266547862,-88.11496905486253,-163.64208538760184,37.763558166369656,37.763558166369656,-100.70282177698574,201.4056435539715,100.70282177698574,100.70282177698574,1233.6095667680754,541.2776670512984,843.3861323822556
-151.05423266547862,-75.52711633273931,-176.22993810972505,37.763558166369656,50.35141088849287,-113.29067449910896,201.4056435539715,113.29067449910896,100.70282177698574,1132.9067449910897,201.4056435539715,503.5141088849287
-151.05423266547862,-75.52711633273931,-188.81779083184827,25.175705444246436,62.93926361061609,-113.29067449910896,201.4056435539715,125.87852722123218,113.29067449910896,1019.6160704919806,25.175705444246436,239.16920172034114
-151.05423266547862,-75.52711633273931,-213.9934962760947,25.175705444246436,62.93926361061609,-113.29067449910896,201.4056435539715,125.87852722123218,113.29067449910896,755.2711633273931,-0.0,125.87852722123218
-151.05423266547862,-75.52711633273931,-239.16920172034114,12.587852722123218,88.11496905486253,-113.29067449910896,201.4056435539715,125.87852722123218,125.87852722123218,226.58134899821792,-0.0,62.93926361061609
-151.05423266547862,-62.93926361061609,-264.3449071645876,12.587852722123218,100.70282177698574,-113.29067449910896,201.4056435539715,138.4663799433554,125.87852722123218,-176.22993810972505,-12.587852722123218,25.175705444246436
-138.4663799433554,-62.93926361061609,-276.9327598867108,12.587852722123218,113.29067449910896,-113.29067449910896,201.4056435539715,151.05423266547862,138.4663799433554,-226.58134899821792,-25.175705444246436,25.175705444246436
-138.4663799433554,-62.93926361061609,-314.69631805308046,-0.0,125.87852722123218,-125.87852722123218,201.4056435539715,163.64208538760184,138.4663799433554,-201.4056435539715,-25.175705444246436,12.587852722123218
-138.4663799433554,-62.93926361061609,-327.2841707752037,-12.587852722123218,138.4663799433554,-151.05423266547862,201.4056435539715,176.22993810972505,151.05423266547862,-125.87852722123218,-37.763558166369656,12.587852722123218
-125.87852722123218,-62.93926361061609,-327.2841707752037,-25.175705444246436,151.05423266547862,-151.05423266547862,201.4056435539715,201.4056435539715,151.05423266547862,-88.11496905486253,-37.763558166369656,-0.0
-125.87852722123218,-62.93926361061609,-314.69631805308046,-37.763558166369656,176.22993810972505,-151.05423266547862,201.4056435539715,226.58134899821792,163.64208538760184,-62.93926361061609,-25.175705444246436,12.587852722123218
-125.87852722123218,-62.93926361061609,-314.69631805308046,-50.35141088849287,201.4056435539715,-163.64208538760184,201.4056435539715,251.75705444246435,176.22993810972505,-50.35141088849287,-25.175705444246436,12.587852722123218
-113.29067449910896,-75.52711633273931,-289.520612608834,-50.35141088849287,226.58134899821792,-163.64208538760184,201.4056435539715,276.9327598867108,188.81779083184827,-50.35141088849287,-25.175705444246436,-0.0
-113.29067449910896,-75.52711633273931,-239.16920172034114,-62.93926361061609,251.75705444246435,-176.22993810972505,201.4056435539715,302.10846533095724,201.4056435539715,-50.35141088849287,-25.175705444246436,-0.0
-113.29067449910896,-62.93926361061609,-188.81779083184827,-75.52711633273931,264.3449071645876,-188.81779083184827,201.4056435539715,327.2841707752037,213.9934962760947,-37.763558166369656,-25.175705444246436,12.587852722123218
-113.29067449910896,-62.93926361061609,-151.05423266547862,-75.52711633273931,276.9327598867108,-213.9934962760947,201.4056435539715,377.63558166369654,239.16920172034114,-37.763558166369656,-25.175705444246436,-0.0
-100.70282177698574,-50.35141088849287,-125.87852722123218,-75.52711633273931,276.9327598867108,-213.9934962760947,188.81779083184827,415.3991398300662,251.75705444246435,-37.763558166369656,-25.175705444246436,-0.0
-100.70282177698574,-37.763558166369656,-88.11496905486253,-75.52711633273931,276.9327598867108,-226.58134899821792,188.81779083184827,465.75055071855905,264.3449071645876,-37.763558166369656,-25.175705444246436,-0.0
-100.70282177698574,-12.587852722123218,-62.93926361061609,-88.11496905486253,276.9327598867108,-226.58134899821792,176.22993810972505,503.5141088849287,289.520612608834,-37.763558166369656,-25.175705444246436,-0.0
-100.70282177698574,-0.0,-37.763558166369656,-88.11496905486253,264.3449071645876,-226.58134899821792,176.22993810972505,553.8655197734216,314.69631805308046,-25.175705444246436,-25.175705444246436,-0.0
-88.11496905486253,25.175705444246436,-25.175705444246436,-88.11496905486253,226.58134899821792,-226.58134899821792,176.22993810972505,579.041225217668,339.8720234973269,-25.175705444246436,-25.175705444246436,-0.0
-75.52711633273931,37.763558166369656,-12.587852722123218,-88.11496905486253,176.22993810972505,-226.58134899821792,163.64208538760184,616.8047833840377,365.0477289415733,-25.175705444246436,-25.175705444246436,-0.0
-62.93926361061609,37.763558166369656,-0.0,-75.52711633273931,138.4663799433554,-213.9934962760947,163.64208538760184,654.5683415504074,390.22343438581976,-25.175705444246436,-25.175705444246436,-0.0
-50.35141088849287,37.763558166369656,-0.0,-62.93926361061609,100.70282177698574,-176.22993810972505,163.64208538760184,667.1561942725306,440.5748452743126,-12.587852722123218,-25.175705444246436,-0.0
-37.763558166369656,50.35141088849287,-0.0,-62.93926361061609,75.52711633273931,-138.4663799433554,151.05423266547862,667.1561942725306,453.16269799643584,-12.587852722123218,-25.175705444246436,-0.0
-25.175705444246436,50.35141088849287,-0.0,-50.35141088849287,62.93926361061609,-100.70282177698574,151.05423266547862,654.5683415504074,478.33840344068227,-12.587852722123218,-25.175705444246436,-0.0
-0.0,50.35141088849287,-0.0,-50.35141088849287,37.763558166369656,-62.93926361061609,151.05423266547862,629.3926361061609,478.33840344068227,-12.587852722123218,-25.175705444246436,-0.0
12.587852722123218,50.35141088849287,-0.0,-37.763558166369656,25.175705444246436,-50.35141088849287,151.05423266547862,566.4533724955448,478.33840344068227,-0.0,-37.763558166369656,-12.587852722123218
37.763558166369656,50.35141088849287,-0.0,-25.175705444246436,25.175705444246436,-37.763558166369656,151.05423266547862,478.33840344068227,478.33840344068227,-12.587852722123218,-37.763558166369656,-12.587852722123218
50.35141088849287,50.35141088849287,-0.0,-25.175705444246436,12.587852722123218,-25.175705444246436,151.05423266547862,390.22343438581976,465.75055071855905,-0.0,-37.763558166369656,-12.587852722123218
75.52711633273931,50.35141088849287,-0.0,-25.175705444246436,-0.0,-12.587852722123218,151.05423266547862,289.520612608834,453.16269799643584,-0.0,-37.763558166369656,-25.175705444246436
100.70282177698574,50.35141088849287,-0.0,-12.587852722123218,-0.0,-25.175705444246436,151.05423266547862,213.9934962760947,415.3991398300662,-0.0,-50.35141088849287,-25.175705444246436
113.29067449910896,62.93926361061609,-0.0,-12.587852722123218,-0.0,-12.587852722123218,163.64208538760184,138.4663799433554,352.4598762194501,-0.0,-37.763558166369656,-25.175705444246436
138.4663799433554,50.35141088849287,-0.0,-12.587852722123218,-0.0,-12.587852722123218,163.64208538760184,88.11496905486253,289.520612608834,-12.587852722123218,-50.35141088849287,-37.763558166369656
151.05423266547862,50.35141088849287,12.587852722123218,-0.0,-0.0,-12.587852722123218,163.64208538760184,50.35141088849287,213.9934962760947,-0.0,-62.93926361061609,-50.35141088849287
176.22993810972505,50.35141088849287,12.587852722123218,-0.0,-0.0,-12.587852722123218,163.64208538760184,25.175705444246436,163.64208538760184,-0.0,-75.52711633273931,-62.93926361061609
188.81779083184827,50.35141088849287,12.587852722123218,-0.0,-0.0,-12.587852722123218,163.64208538760184,12.587852722123218,100.70282177698574,-0.0,-75.52711633273931,-75.52711633273931
201.4056435539715,50.35141088849287,-0.0,-0.0,-12.587852722123218,-12.587852722123218,163.64208538760184,-0.0,75.52711633273931,-0.0,-88.11496905486253,-88.11496905486253
213.9934962760947,50.35141088849287,-0.0,-0.0,-12.587852722123218,-12.587852722123218,163.64208538760184,-0.0,37.763558166369656,-0.0,-100.70282177698574,-100.70282177698574
213.9934962760947,50.35141088849287,-0.0,-0.0,-0.0,-12.587852722123218,163.64208538760184,-0.0,12.587852722123218,-0.0,-113.29067449910896,-113.29067449910896
201.4056435539715,50.35141088849287,-12.587852722123218,-0.0,-0.0,-12.587852722123218,176.22993810972505,-0.0,12.587852722123218,-0.0,-125.87852722123218,-125.87852722123218
176.22993810972505,50.35141088849287,-12.587852722123218,-0.0,-0.0,-12.587852722123218,176.22993810972505,-0.0,-0.0,-0.0,-151.05423266547862,-151.05423266547862
151.05423266547862,37.763558166369656,-12.587852722123218,-0.0,-0.0,-12.587852722123218,176.22993810972505,-0.0,-0.0,-0.0,-176.22993810972505,-163.64208538760184
125.87852722123218,37.763558166369656,-0.0,-0.0,-12.587852722123218,-12.587852722123218,176.22993810972505,-0.0,-0.0,-0.0,-188.81779083184827,-188.81779083184827
100.70282177698574,37.763558166369656,-0.0,-0.0,-12.587852722123218,-12.587852722123218,176.22993810972505,-0.0,-0.0,12.587852722123218,-213.9934962760947,-201.4056435539715
75.52711633273931,37.763558166369656,-0.0,-0.0,-12.587852722123218,-12.587852722123218,176.22993810972505,-0.0,-0.0,-0.0,-226.58134899821792,-201.4056435539715
50.35141088849287,37.763558166369656,-0.0,-0.0,-25.175705444246436,-12.587852722123218,188.81779083184827,-0.0,-0.0,-0.0,-226.58134899821792,-201.4056435539715
25.175705444246436,37.763558166369656,-0.0,-0.0,-25.175705444246436,-0.0,188.81779083184827,-0.0,-0.0,-0.0,-226.58134899821792,-201.4056435539715
25.175705444246436,50.35141088849287,-0.0,-12.587852722123218,-25.175705444246436,-0.0,188.81779083184827,12.587852722123218,-0.0,-12.587852722123218,-226.58134899821792,-188.81779083184827
12.587852722123218,62.93926361061609,-0.0,-12.587852722123218,-25.175705444246436,-12.587852722123218,188.81779083184827,25.175705444246436,-0.0,-25.175705444246436,-213.9934962760947,-163.64208538760184
-0.0,75.52711633273931,-0.0,-25.175705444246436,-25.175705444246436,-0.0,188.81779083184827,37.763558166369656,-0.0,-37.763558166369656,-188.81779083184827,-138.4663799433554
-0.0,88.11496905486253,12.587852722123218,-37.763558166369656,-25.175705444246436,-0.0,176.22993810972505,37.763558166369656,-0.0,-37.763558166369656,-138.4663799433554,-88.11496905486253
12.587852722123218,100.70282177698574,37.763558166369656,-50.35141088849287,-25.175705444246436,-0.0,176.22993810972505,50.35141088849287,-0.0,-50.35141088849287,-100.70282177698574,-50.35141088849287
-0.0,100.70282177698574,25.175705444246436,-62.93926361061609,-12.587852722123218,12.587852722123218,188.81779083184827,50.35141088849287,12.587852722123218,-50.35141088849287,-37.763558166369656,-0.0
-0.0,113.29067449910896,12.587852722123218,-62.93926361061609,-12.587852722123218,25.175705444246436,201.4056435539715,62.93926361061609,25.175705444246436,-50.35141088849287,12.587852722123218,37.763558166369656
12.587852722123218,138.4663799433554,-0.0,-75.52711633273931,-0.0,37.763558166369656,201.4056435539715,62.93926361061609,37.763558166369656,-50.35141088849287,50.35141088849287,75.52711633273931
-0.0,163.64208538760184,-12.587852722123218,-88.11496905486253,12.587852722123218,37.763558166369656,201.4056435539715,62.93926361061609,37.763558166369656,-50.35141088849287,75.52711633273931,88.11496905486253
-0.0,176.22993810972505,-25.175705444246436,-113.29067449910896,12.587852722123218,50.35141088849287,201.4056435539715,75.52711633273931,37.763558166369656,-50.35141088849287,88.11496905486253,100.70282177698574
-0.0,188.81779083184827,-25.175705444246436,-125.87852722123218,12.587852722123218,37.763558166369656,188.81779083184827,88.11496905486253,50.35141088849287,-37.763558166369656,100.70282177698574,113.29067449910896
-0.0,176.22993810972505,-12.587852722123218,-125.87852722123218,12.587852722123218,50.35141088849287,176.22993810972505,88.11496905486253,50.35141088849287,-25.175705444246436,113.29067449910896,125.87852722123218
-0.0,176.22993810972505,-25.175705444246436,-125.87852722123218,25.175705444246436,62.93926361061609,138.4663799433554,75.52711633273931,62.93926361061609,-12.587852722123218,125.87852722123218,125.87852722123218
-0.0,163.64208538760184,-25.175705444246436,-138.4663799433554,37.763558166369656,88.11496905486253,125.87852722123218,75.52711633273931,62.93926361061609,-0.0,125.87852722123218,138.4663799433554
-12.587852722123218,151.05423266547862,-25.175705444246436,-138.4663799433554,37.763558166369656,88.11496905486253,100.70282177698574,88.11496905486253,62.93926361061609,-0.0,125.87852722123218,125.87852722123218
-12.587852722123218,138.4663799433554,-50.35141088849287,-138.4663799433554,37.763558166369656,75.52711633273931,88.11496905486253,100.70282177698574,62.93926361061609,12.587852722123218,125.87852722123218,125.87852722123218
-12.587852722123218,125.87852722123218,-62.93926361061609,-125.87852722123218,37.763558166369656,75.52711633273931,88.11496905486253,100.70282177698574,62.93926361061609,12.587852722123218,125.87852722123218,125.87852722123218
-12.587852722123218,100.70282177698574,-50.35141088849287,-113.29067449910896,25.175705444246436,62.93926361061609,100.70282177698574,100.70282177698574,62.93926361061609,12.587852722123218,125.87852722123218,125.87852722123218
-12.587852722123218,75.52711633273931,-50.35141088849287,-88.11496905486253,25.175705444246436,62.93926361061609,100.70282177698574,100.70282177698574,88.11496905486253,12.587852722123218,125.87852722123218,125.87852722123218
-12.587852722123218,62.93926361061609,-50.35141088849287,-75.52711633273931,12.587852722123218,62.93926361061609,100.70282177698574,88.11496905486253,100.70282177698574,12.587852722123218,125.87852722123218,125.87852722123218
-0.0,37.763558166369656,-50.35141088849287,-62.93926361061609,12.587852722123218,50.35141088849287,100.70282177698574,88.11496905486253,113.29067449910896,12.587852722123218,113.29067449910896,125.87852722123218
-0.0,12.587852722123218,-37.763558166369656,-37.763558166369656,25.175705444246436,37.763558166369656,113.29067449910896,75.52711633273931,100.70282177698574,12.587852722123218,113.29067449910896,125.87852722123218
-0.0,-12.587852722123218,-37.763558166369656,-12.587852722123218,12.587852722123218,25.175705444246436,125.87852722123218,62.93926361061609,100.70282177698574,12.587852722123218,113.29067449910896,125.87852722123218
12.587852722123218,-12.587852722123218,-37.763558166369656,-0.0,-0.0,12.587852722123218,125.87852722123218,62.93926361061609,100.70282177698574,12.587852722123218,113.29067449910896,113.29067449910896
12.587852722123218,-0.0,-37.763558166369656,12.587852722123218,-0.0,-12.587852722123218,138.4663799433554,75.52711633273931,113.29067449910896,12.587852722123218,113.29067449910896,113.29067449910896
25.175705444246436,-0.0,-37.763558166369656,12.587852722123218,-0.0,-25.175705444246436,151.05423266547862,75.52711633273931,100.70282177698574,12.587852722123218,100.70282177698574,113.29067449910896
25.175705444246436,-0.0,-37.763558166369656,12.587852722123218,-0.0,-37.763558166369656,163.64208538760184,75.52711633273931,75.52711633273931,-0.0,100.70282177698574,100.70282177698574
37.763558166369656,-12.587852722123218,-62.93926361061609,12.587852722123218,-0.0,-25.175705444246436,163.64208538760184,75.52711633273931,75.52711633273931,-0.0,88.11496905486253,100.70282177698574
50.35141088849287,-12.587852722123218,-75.52711633273931,12.587852722123218,-12.587852722123218,-37.763558166369656,163.64208538760184,75.52711633273931,62.93926361061609,-0.0,88.11496905486253,100.70282177698574
62.93926361061609,-12.587852722123218,-50.35141088849287,12.587852722123218,-0.0,-37.763558166369656,163.64208538760184,62.93926361061609,62.93926361061609,12.587852722123218,88.11496905486253,88.11496905486253
75.52711633273931,-0.0,138.4663799433554,12.587852722123218,-0.0,-37.763558166369656,163.64208538760184,50.35141088849287,50.35141088849287,-0.0,88.11496905486253,88.11496905486253
88.11496905486253,12.587852722123218,516.101961607052,25.175705444246436,-0.0,-50.35141088849287,163.64208538760184,50.35141088849287,37.763558166369656,-0.0,88.11496905486253,75.52711633273931
88.11496905486253,62.93926361061609,969.2646596034878,-0.0,12.587852722123218,-50.35141088849287,163.64208538760184,62.93926361061609,25.175705444246436,-0.0,88.11496905486253,75.52711633273931
100.70282177698574,113.29067449910896,1283.9609776565683,-62.93926361061609,37.763558166369656,-50.35141088849287,163.64208538760184,62.93926361061609,12.587852722123218,-0.0,88.11496905486253,75.52711633273931
113.29067449910896,176.22993810972505,1233.6095667680754,-113.29067449910896,62.93926361061609,-50.35141088849287,163.64208538760184,62.93926361061609,-0.0,-0.0,75.52711633273931,75.52711633273931
125.87852722123218,314.69631805308046,881.1496905486252,-151.05423266547862,75.52711633273931,-37.763558166369656,163.64208538760184,62.93926361061609,-0.0,-0.0,75.52711633273931,75.52711633273931
125.87852722123218,541.2776670512984,453.16269799643584,-188.81779083184827,-62.93926361061609,-12.587852722123218,163.64208538760184,62.93926361061609,-12.587852722123218,-0.0,75.52711633273931,75.52711633273931
113.29067449910896,893.7375432707485,88.11496905486253,-251.75705444246435,-327.2841707752037,12.587852722123218,151.05423266547862,62.93926361061609,-25.175705444246436,-0.0,88.11496905486253,75.52711633273931
100.70282177698574,1271.373124934445,-62.93926361061609,-377.63558166369654,-629.3926361061609,50.35141088849287,75.52711633273931,50.35141088849287,-25.175705444246436,-0.0,88.11496905486253,75.52711633273931
88.11496905486253,1523.1301793769094,75.52711633273931,-604.2169306619145,-780.4468687716395,226.58134899821792,-100.70282177698574,50.35141088849287,-25.175705444246436,-0.0,88.11496905486253,88.11496905486253
62.93926361061609,1422.4273575999237,100.70282177698574,-830.7982796601324,-604.2169306619145,553.8655197734216,-314.69631805308046,62.93926361061609,-25.175705444246436,12.587852722123218,100.70282177698574,88.11496905486253
50.35141088849287,1095.14318682472,37.763558166369656,-931.5011014371181,-302.10846533095724,969.2646596034878,-579.041225217668,62.93926361061609,-25.175705444246436,-0.0,100.70282177698574,100.70282177698574
37.763558166369656,641.9804888282841,25.175705444246436,-818.2104269380092,-12.587852722123218,1321.724535822938,-906.3253959928717,62.93926361061609,-25.175705444246436,-0.0,113.29067449910896,113.29067449910896
25.175705444246436,302.10846533095724,-0.0,-553.8655197734216,138.4663799433554,1422.4273575999237,-1158.082450435336,151.05423266547862,-25.175705444246436,-0.0,113.29067449910896,113.29067449910896
12.587852722123218,176.22993810972505,-37.763558166369656,-276.9327598867108,138.4663799433554,1195.8460086017058,-1258.7852722123218,264.3449071645876,-37.763558166369656,12.587852722123218,113.29067449910896,113.29067449910896
-12.587852722123218,88.11496905486253,-50.35141088849287,-88.11496905486253,-12.587852722123218,793.0347214937627,-1044.7917759362272,100.70282177698574,-37.763558166369656,25.175705444246436,125.87852722123218,113.29067449910896
-12.587852722123218,12.587852722123218,-37.763558166369656,25.175705444246436,-75.52711633273931,390.22343438581976,-755.2711633273931,-377.63558166369654,-25.175705444246436,25.175705444246436,138.4663799433554,138.4663799433554
-12.587852722123218,-12.587852722123218,-50.35141088849287,62.93926361061609,-50.35141088849287,113.29067449910896,-465.75055071855905,-1107.7310395468432,62.93926361061609,37.763558166369656,163.64208538760184,163.64208538760184
-12.587852722123218,-25.175705444246436,-50.35141088849287,75.52711633273931,-37.763558166369656,62.93926361061609,-201.4056435539715,-1875.5900555963594,226.58134899821792,37.763558166369656,188.81779083184827,176.22993810972505
-25.175705444246436,-50.35141088849287,-50.35141088849287,62.93926361061609,-37.763558166369656,25.175705444246436,-25.175705444246436,-245.46312808140274,88.11496905486253,50.35141088849287,188.81779083184827,176.22993810972505
-25.175705444246436,-50.35141088849287,-50.35141088849287,62.93926361061609,-25.175705444246436,-50.35141088849287,75.52711633273931,1384.663799433554,-377.63558166369654,50.35141088849287,188.81779083184827,188.81779083184827
-25.175705444246436,-50.35141088849287,-50.35141088849287,62.93926361061609,-12.587852722123218,-50.35141088849287,125.87852722123218,1170.6703031574593,1032.203923214104,62.93926361061609,201.4056435539715,188.81779083184827
-25.175705444246436,-50.35141088849287,-62.93926361061609,62.93926361061609,-12.587852722123218,-62.93926361061609,163.64208538760184,1132.9067449910897,465.75055071855905,62.93926361061609,201.4056435539715,201.4056435539715
-25.175705444246436,-50.35141088849287,-75.52711633273931,62.93926361061609,-12.587852722123218,-62.93926361061609,176.22993810972505,1334.3123885450611,-151.05423266547862,75.52711633273931,213.9934962760947,213.9934962760947
-0.0,-50.35141088849287,-75.52711633273931,50.35141088849287,-0.0,-62.93926361061609,176.22993810972505,1485.3666212105397,-516.101961607052,88.11496905486253,213.9934962760947,201.4056435539715
62.93926361061609,-50.35141088849287,-75.52711633273931,50.35141088849287,-0.0,-62.93926361061609,176.22993810972505,-893.7375432707485,-478.33840344068227,88.11496905486253,201.4056435539715,188.81779083184827
138.4663799433554,-50.35141088849287,-62.93926361061609,50.35141088849287,-0.0,-75.52711633273931,188.81779083184827,-528.6898143291752,-62.93926361061609,88.11496905486253,188.81779083184827,176.22993810972505
163.64208538760184,-50.35141088849287,-75.52711633273931,50.35141088849287,12.587852722123218,-88.11496905486253,188.81779083184827,-264.3449071645876,503.5141088849287,88.11496905486253,176.22993810972505,176.22993810972505
113.29067449910896,-50.35141088849287,-75.52711633273931,50.35141088849287,12.587852722123218,-88.11496905486253,188.81779083184827,-88.11496905486253,1007.0282177698574,88.11496905486253,151.05423266547862,163.64208538760184
-37.763558166369656,-62.93926361061609,-88.11496905486253,50.35141088849287,12.587852722123218,-88.11496905486253,176.22993810972505,25.175705444246436,1246.1974194901986,75.52711633273931,138.4663799433554,138.4663799433554
-125.87852722123218,-50.35141088849287,-88.11496905486253,50.35141088849287,12.587852722123218,-88.11496905486253,188.81779083184827,113.29067449910896,-755.2711633273931,75.52711633273931,113.29067449910896,113.29067449910896
-62.93926361061609,-37.763558166369656,-75.52711633273931,37.763558166369656,12.587852722123218,-88.11496905486253,176.22993810972505,138.4663799433554,-440.5748452743126,62.93926361061609,113.29067449910896,100.70282177698574
188.81779083184827,-37.763558166369656,-75.52711633273931,37.763558166369656,25.175705444246436,-88.11496905486253,188.81779083184827,163.64208538760184,-251.75705444246435,50.35141088849287,113.29067449910896,100.70282177698574
490.9262561628055,-37.763558166369656,-75.52711633273931,37.763558166369656,25.175705444246436,-88.11496905486253,188.81779083184827,176.22993810972505,-125.87852722123218,25.175705444246436,125.87852722123218,100.70282177698574
616.8047833840377,-50.35141088849287,-75.52711633273931,37.763558166369656,25.175705444246436,-88.11496905486253,176.22993810972505,176.22993810972505,-25.175705444246436,25.175705444246436,125.87852722123218,100.70282177698574
503.5141088849287,-50.35141088849287,-88.11496905486253,37.763558166369656,25.175705444246436,-88.11496905486253,176.22993810972505,176.22993810972505,-0.0,12.587852722123218,113.29067449910896,100.70282177698574
289.520612608834,-37.763558166369656,-88.11496905486253,37.763558166369656,25.175705444246436,-88.11496905486253,176.22993810972505,188.81779083184827,12.587852722123218,-12.587852722123218,113.29067449910896,100.70282177698574
50.35141088849287,-37.763558166369656,-88.11496905486253,37.763558166369656,25.175705444246436,-88.11496905486253,176.22993810972505,188.81779083184827,25.175705444246436,-12.587852722123218,113.29067449910896,100.70282177698574
-75.52711633273931,-37.763558166369656,-88.11496905486253,37.763558166369656,37.763558166369656,-88.11496905486253,176.22993810972505,188.81779083184827,37.763558166369656,-12.587852722123218,113.29067449910896,100.70282177698574
-88.11496905486253,-37.763558166369656,-100.70282177698574,25.175705444246436,37.763558166369656,-88.11496905486253,176.22993810972505,188.81779083184827,37.763558166369656,-12.587852722123218,113.29067449910896,100.70282177698574
-88.11496905486253,-37.763558166369656,-100.70282177698574,25.175705444246436,50.35141088849287,-88.11496905486253,176.22993810972505,201.4056435539715,50.35141088849287,-12.587852722123218,113.29067449910896,100.70282177698574
-88.11496905486253,-37.763558166369656,-113.29067449910896,25.175705444246436,50.35141088849287,-88.11496905486253,176.22993810972505,201.4056435539715,50.35141088849287,-12.587852722123218,125.87852722123218,88.11496905486253
-75.52711633273931,-37.763558166369656,-125.87852722123218,25.175705444246436,50.35141088849287,-100.70282177698574,163.64208538760184,201.4056435539715,50.35141088849287,-12.587852722123218,188.81779083184827,138.4663799433554
-62.93926361061609,-37.763558166369656,-125.87852722123218,25.175705444246436,50.35141088849287,-100.70282177698574,163.64208538760184,201.4056435539715,62.93926361061609,-25.175705444246436,327.2841707752037,251.75705444246435
-62.93926361061609,-37.763558166369656,-138.4663799433554,12.587852722123218,62.93926361061609,-100.70282177698574,163.64208538760184,213.9934962760947,62.93926361061609,-25.175705444246436,616.8047833840377,478.33840344068227
-62.93926361061609,-37.763558166369656,-163.64208538760184,12.587852722123218,62.93926361061609,-100.70282177698574,163.64208538760184,213.9934962760947,75.52711633273931,12.587852722123218,994.4403650477342,818.2104269380092
-50.35141088849287,-37.763558166369656,-176.22993810972505,12.587852722123218,75.52711633273931,-100.70282177698574,163.64208538760184,226.58134899821792,75.52711633273931,62.93926361061609,1523.1301793769094,1283.9609776565683
-50.35141088849287,-37.763558166369656,-188.81779083184827,-0.0,88.11496905486253,-113.29067449910896,163.64208538760184,213.9934962760947,75.52711633273931,125.87852722123218,2139.934962760947,1837.8264974299898
-50.35141088849287,-37.763558166369656,-201.4056435539715,-0.0,88.11496905486253,-113.29067449910896,163.64208538760184,226.58134899821792,75.52711633273931,213.9934962760947,2643.449071645876,2278.4013427043024
-50.35141088849287,-37.763558166369656,-226.58134899821792,-0.0,100.70282177698574,-113.29067449910896,163.64208538760184,226.58134899821792,88.11496905486253,365.0477289415733,2832.266862477724,2479.806986258274
-50.35141088849287,-37.763558166369656,-251.75705444246435,-0.0,100.70282177698574,-113.29067449910896,163.64208538760184,239.16920172034114,88.11496905486253,528.6898143291752,2693.8004825343687,2379.104164481288
-37.763558166369656,-37.763558166369656,-289.520612608834,-12.587852722123218,113.29067449910896,-125.87852722123218,163.64208538760184,251.75705444246435,100.70282177698574,767.8590160495163,2202.874226371563,1963.705024651222
-37.763558166369656,-37.763558166369656,-302.10846533095724,-25.175705444246436,125.87852722123218,-125.87852722123218,163.64208538760184,251.75705444246435,100.70282177698574,1019.6160704919806,2731.564040700738,1397.2516521556772
-37.763558166369656,-37.763558166369656,-314.69631805308046,-25.175705444246436,138.4663799433554,-138.4663799433554,151.05423266547862,264.3449071645876,100.70282177698574,1183.2581558795825,2467.219133536151,956.6768068813645
-37.763558166369656,-37.763558166369656,-327.2841707752037,-37.763558166369656,163.64208538760184,-138.4663799433554,151.05423266547862,276.9327598867108,113.29067449910896,1145.494597713213,2328.752753592795,604.2169306619145
-25.175705444246436,-37.763558166369656,-339.8720234973269,-50.35141088849287,176.22993810972505,-138.4663799433554,151.05423266547862,289.520612608834,125.87852722123218,1044.7917759362272,2341.3406063149187,314.69631805308046
-12.587852722123218,-37.763558166369656,-352.4598762194501,-62.93926361061609,201.4056435539715,-151.05423266547862,151.05423266547862,289.520612608834,125.87852722123218,843.3861323822556,2416.867722647658,176.22993810972505
-12.587852722123218,-37.763558166369656,-352.4598762194501,-62.93926361061609,226.58134899821792,-151.05423266547862,151.05423266547862,314.69631805308046,125.87852722123218,377.63558166369654,2467.219133536151,100.70282177698574
-12.587852722123218,-37.763558166369656,-339.8720234973269,-75.52711633273931,251.75705444246435,-163.64208538760184,138.4663799433554,327.2841707752037,138.4663799433554,-88.11496905486253,2504.9826917025202,62.93926361061609
-12.587852722123218,-37.763558166369656,-327.2841707752037,-88.11496905486253,264.3449071645876,-176.22993810972505,138.4663799433554,352.4598762194501,138.4663799433554,-226.58134899821792,2517.5705444246437,50.35141088849287
-12.587852722123218,-37.763558166369656,-289.520612608834,-88.11496905486253,276.9327598867108,-188.81779083184827,138.4663799433554,377.63558166369654,151.05423266547862,-213.9934962760947,2517.5705444246437,37.763558166369656
-12.587852722123218,-37.763558166369656,-239.16920172034114,-100.70282177698574,289.520612608834,-201.4056435539715,138.4663799433554,402.811287107943,163.64208538760184,-138.4663799433554,2517.5705444246437,25.175705444246436
-12.587852722123218,-37.763558166369656,-201.4056435539715,-100.70282177698574,302.10846533095724,-213.9934962760947,138.4663799433554,427.9869925521894,176.22993810972505,-88.11496905486253,2517.5705444246437,25.175705444246436
-12.587852722123218,-37.763558166369656,-138.4663799433554,-113.29067449910896,289.520612608834,-226.58134899821792,125.87852722123218,453.16269799643584,201.4056435539715,-50.35141088849287,2517.5705444246437,25.175705444246436
-12.587852722123218,-25.175705444246436,-100.70282177698574,-113.29067449910896,289.520612608834,-226.58134899821792,125.87852722123218,490.9262561628055,213.9934962760947,-37.763558166369656,2517.5705444246437,25.175705444246436
-0.0,-0.0,-62.93926361061609,-113.29067449910896,289.520612608834,-226.58134899821792,125.87852722123218,541.2776670512984,239.16920172034114,-37.763558166369656,2530.1583971467667,37.763558166369656
-0.0,25.175705444246436,-37.763558166369656,-113.29067449910896,251.75705444246435,-213.9934962760947,113.29067449910896,591.6290779397913,264.3449071645876,-37.763558166369656,2530.1583971467667,25.175705444246436
-0.0,37.763558166369656,-25.175705444246436,-113.29067449910896,201.4056435539715,-213.9934962760947,100.70282177698574,641.9804888282841,276.9327598867108,-37.763558166369656,2530.1583971467667,25.175705444246436
12.587852722123218,50.35141088849287,-0.0,-100.70282177698574,163.64208538760184,-188.81779083184827,88.11496905486253,667.1561942725306,302.10846533095724,-37.763558166369656,2530.1583971467667,25.175705444246436
25.175705444246436,62.93926361061609,-0.0,-88.11496905486253,113.29067449910896,-163.64208538760184,88.11496905486253,717.5076051610234,339.8720234973269,-37.763558166369656,2542.74624986889,25.175705444246436
25.175705444246436,75.52711633273931,-0.0,-75.52711633273931,88.11496905486253,-125.87852722123218,75.52711633273931,742.6833106052699,365.0477289415733,-25.175705444246436,2542.74624986889,37.763558166369656
37.763558166369656,75.52711633273931,-0.0,-75.52711633273931,75.52711633273931,-88.11496905486253,62.93926361061609,767.8590160495163,390.22343438581976,-25.175705444246436,2542.74624986889,25.175705444246436
50.35141088849287,75.52711633273931,-0.0,-62.93926361061609,50.35141088849287,-50.35141088849287,50.35141088849287,780.4468687716395,415.3991398300662,-25.175705444246436,2542.74624986889,25.175705444246436
62.93926361061609,88.11496905486253,12.587852722123218,-62.93926361061609,25.175705444246436,-37.763558166369656,50.35141088849287,780.4468687716395,440.5748452743126,-25.175705444246436,2555.334102591013,25.175705444246436
75.52711633273931,75.52711633273931,12.587852722123218,-50.35141088849287,12.587852722123218,-25.175705444246436,50.35141088849287,780.4468687716395,453.16269799643584,-12.587852722123218,2542.74624986889,25.175705444246436
88.11496905486253,75.52711633273931,12.587852722123218,-50.35141088849287,12.587852722123218,-12.587852722123218,50.35141088849287,742.6833106052699,465.75055071855905,-12.587852722123218,2542.74624986889,25.175705444246436
113.29067449910896,75.52711633273931,25.175705444246436,-50.35141088849287,12.587852722123218,-0.0,50.35141088849287,679.7440469946538,465.75055071855905,-12.587852722123218,2555.334102591013,25.175705444246436
125.87852722123218,75.52711633273931,12.587852722123218,-37.763558166369656,12.587852722123218,-0.0,50.35141088849287,604.2169306619145,465.75055071855905,-12.587852722123218,2555.334102591013,25.175705444246436
151.05423266547862,75.52711633273931,12.587852722123218,-37.763558166369656,12.587852722123218,-0.0,50.35141088849287,503.5141088849287,465.75055071855905,-0.0,2555.334102591013,12.587852722123218
176.22993810972505,75.52711633273931,12.587852722123218,-37.763558166369656,-0.0,-0.0,50.35141088849287,415.3991398300662,440.5748452743126,-12.587852722123218,2555.334102591013,-0.0
188.81779083184827,75.52711633273931,12.587852722123218,-25.175705444246436,-0.0,-0.0,50.35141088849287,327.2841707752037,377.63558166369654,-12.587852722123218,2555.334102591013,-0.0
201.4056435539715,88.11496905486253,12.587852722123218,-25.175705444246436,-0.0,-0.0,50.35141088849287,276.9327598867108,327.2841707752037,-0.0,2555.334102591013,12.587852722123218
226.58134899821792,75.52711633273931,12.587852722123218,-25.175705444246436,-0.0,-0.0,50.35141088849287,239.16920172034114,264.3449071645876,-0.0,2555.334102591013,12.587852722123218
239.16920172034114,75.52711633273931,12.587852722123218,-25.175705444246436,-0.0,-0.0,50.35141088849287,213.9934962760947,201.4056435539715,-0.0,2555.334102591013,-0.0
251.75705444246435,75.52711633273931,12.587852722123218,-25.175705444246436,-0.0,-0.0,50.35141088849287,188.81779083184827,138.4663799433554,-0.0,2567.9219553131366,-0.0
251.75705444246435,75.52711633273931,12.587852722123218,-25.175705444246436,-0.0,12.587852722123218,50.35141088849287,176.22993810972505,100.70282177698574,-0.0,2567.9219553131366,-12.587852722123218
251.75705444246435,75.52711633273931,12.587852722123218,-25.175705444246436,-0.0,-0.0,50.35141088849287,163.64208538760184,62.93926361061609,-0.0,2567.9219553131366,-12.587852722123218
239.16920172034114,75.52711633273931,12.587852722123218,-25.175705444246436,-0.0,-0.0,50.35141088849287,151.05423266547862,37.763558166369656,-0.0,2555.334102591013,-25.175705444246436
226.58134899821792,75.52711633273931,12.587852722123218,-25.175705444246436,-0.0,-0.0,50.35141088849287,163.64208538760184,25.175705444246436,-0.0,2555.334102591013,-25.175705444246436
201.4056435539715,62.93926361061609,12.587852722123218,-25.175705444246436,-12.587852722123218,-0.0,50.35141088849287,151.05423266547862,-0.0,12.587852722123218,2567.9219553131366,-37.763558166369656
176.22993810972505,62.93926361061609,12.587852722123218,-25.175705444246436,-12.587852722123218,-0.0,50.35141088849287,151.05423266547862,-12.587852722123218,12.587852722123218,2567.9219553131366,-50.35141088849287
138.4663799433554,75.52711633273931,25.175705444246436,-25.175705444246436,-12.587852722123218,-0.0,50.35141088849287,151.05423266547862,-12.587852722123218,12.587852722123218,2567.9219553131366,-62.93926361061609
113.29067449910896,75.52711633273931,25.175705444246436,-25.175705444246436,-12.587852722123218,-0.0,50.35141088849287,138.4663799433554,-12.587852722123218,-0.0,2580.5098080352595,-75.52711633273931
88.11496905486253,75.52711633273931,25.175705444246436,-25.175705444246436,-25.175705444246436,-0.0,50.35141088849287,138.4663799433554,-12.587852722123218,-0.0,2567.9219553131366,-88.11496905486253
62.93926361061609,75.52711633273931,37.763558166369656,-12.587852722123218,-12.587852722123218,-0.0,50.35141088849287,151.05423266547862,-12.587852722123218,12.587852722123218,2555.334102591013,-113.29067449910896
50.35141088849287,75.52711633273931,25.175705444246436,-25.175705444246436,-12.587852722123218,12.587852722123218,50.35141088849287,163.64208538760184,-12.587852722123218,12.587852722123218,2542.74624986889,-138.4663799433554
37.763558166369656,88.11496905486253,25.175705444246436,-37.763558166369656,-12.587852722123218,-0.0,50.35141088849287,163.64208538760184,-12.587852722123218,12.587852722123218,2542.74624986889,-151.05423266547862
25.175705444246436,100.70282177698574,25.175705444246436,-50.35141088849287,-25.175705444246436,-0.0,50.35141088849287,163.64208538760184,-12.587852722123218,25.175705444246436,2542.74624986889,-163.64208538760184
25.175705444246436,113.29067449910896,50.35141088849287,-50.35141088849287,-12.587852722123218,-0.0,50.35141088849287,176.22993810972505,-12.587852722123218,12.587852722123218,2530.1583971467667,-163.64208538760184
25.175705444246436,125.87852722123218,50.35141088849287,-62.93926361061609,-12.587852722123218,12.587852722123218,50.35141088849287,176.22993810972505,-0.0,-0.0,2517.5705444246437,-176.22993810972505
12.587852722123218,138.4663799433554,37.763558166369656,-75.52711633273931,-12.587852722123218,25.175705444246436,62.93926361061609,176.22993810972505,-0.0,-12.587852722123218,2504.9826917025202,-176.22993810972505
12.587852722123218,151.05423266547862,25.175705444246436,-88.11496905486253,-0.0,37.763558166369656,75.52711633273931,188.81779083184827,-0.0,-12.587852722123218,2492.3948389803973,-176.22993810972505
12.587852722123218,188.81779083184827,12.587852722123218,-100.70282177698574,12.587852722123218,37.763558166369656,62.93926361061609,188.81779083184827,12.587852722123218,-12.587852722123218,2492.3948389803973,-163.64208538760184
12.587852722123218,213.9934962760947,12.587852722123218,-113.29067449910896,12.587852722123218,50.35141088849287,50.35141088849287,201.4056435539715,12.587852722123218,-25.175705444246436,2492.3948389803973,-125.87852722123218
12.587852722123218,226.58134899821792,-0.0,-138.4663799433554,25.175705444246436,50.35141088849287,50.35141088849287,201.4056435539715,12.587852722123218,-37.763558166369656,2504.9826917025202,-75.52711633273931
12.587852722123218,226.58134899821792,-0.0,-151.05423266547862,25.175705444246436,50.35141088849287,37.763558166369656,213.9934962760947,12.587852722123218,-50.35141088849287,2517.5705444246437,-25.175705444246436
12.587852722123218,213.9934962760947,12.587852722123218,-151.05423266547862,25.175705444246436,62.93926361061609,-0.0,226.58134899821792,12.587852722123218,-62.93926361061609,2517.5705444246437,25.175705444246436
12.587852722123218,213.9934962760947,12.587852722123218,-151.05423266547862,25.175705444246436,75.52711633273931,-25.175705444246436,213.9934962760947,25.175705444246436,-62.93926361061609,2517.5705444246437,62.93926361061609
12.587852722123218,201.4056435539715,12.587852722123218,-151.05423266547862,37.763558166369656,88.11496905486253,-37.763558166369656,213.9934962760947,37.763558166369656,-62.93926361061609,2530.1583971467667,88.11496905486253
12.587852722123218,188.81779083184827,-0.0,-151.05423266547862,50.35141088849287,88.11496905486253,-62.93926361061609,213.9934962760947,37.763558166369656,-50.35141088849287,2542.74624986889,113.29067449910896
-0.0,163.64208538760184,-25.175705444246436,-138.4663799433554,50.35141088849287,88.11496905486253,-62.93926361061609,226.58134899821792,50.35141088849287,-37.763558166369656,2555.334102591013,125.87852722123218
-0.0,151.05423266547862,-25.175705444246436,-125.87852722123218,37.763558166369656,75.52711633273931,-62.93926361061609,226.58134899821792,50.35141088849287,-37.763558166369656,2555.334102591013,138.4663799433554
-0.0,138.4663799433554,-25.175705444246436,-113.29067449910896,37.763558166369656,62.93926361061609,-62.93926361061609,226.58134899821792,50.35141088849287,-37.763558166369656,2567.9219553131366,138.4663799433554
-0.0,113.29067449910896,-12.587852722123218,-88.11496905486253,25.175705444246436,50.35141088849287,-62.93926361061609,239.16920172034114,50.35141088849287,-25.175705444246436,2567.9219553131366,151.05423266547862
-0.0,88.11496905486253,-12.587852722123218,-75.52711633273931,25.175705444246436,50.35141088849287,-50.35141088849287,239.16920172034114,50.35141088849287,-12.587852722123218,2567.9219553131366,163.64208538760184
-0.0,62.93926361061609,-12.587852722123218,-50.35141088849287,25.175705444246436,37.763558166369656,-37.763558166369656,239.16920172034114,62.93926361061609,-0.0,2567.9219553131366,151.05423266547862
-0.0,37.763558166369656,-12.587852722123218,-37.763558166369656,25.175705444246436,25.175705444246436,-37.763558166369656,251.75705444246435,75.52711633273931,-0.0,2567.9219553131366,151.05423266547862
12.587852722123218,25.175705444246436,-12.587852722123218,-12.587852722123218,12.587852722123218,12.587852722123218,-25.175705444246436,226.58134899821792,75.52711633273931,12.587852722123218,2567.9219553131366,151.05423266547862
12.587852722123218,37.763558166369656,-12.587852722123218,-0.0,12.587852722123218,-0.0,-25.175705444246436,226.58134899821792,88.11496905486253,12.587852722123218,2567.9219553131366,151.05423266547862
12.587852722123218,37.763558166369656,-12.587852722123218,12.587852722123218,12.587852722123218,-25.175705444246436,-12.587852722123218,226.58134899821792,88.11496905486253,12.587852722123218,2567.9219553131366,151.05423266547862
25.175705444246436,25.175705444246436,-25.175705444246436,12.587852722123218,12.587852722123218,-37.763558166369656,-0.0,213.9934962760947,100.70282177698574,12.587852722123218,2567.9219553131366,151.05423266547862
25.175705444246436,25.175705444246436,-37.763558166369656,12.587852722123218,-0.0,-37.763558166369656,-0.0,213.9934962760947,100.70282177698574,12.587852722123218,2567.9219553131366,151.05423266547862
37.763558166369656,25.175705444246436,-62.93926361061609,12.587852722123218,-0.0,-37.763558166369656,-0.0,213.9934962760947,100.70282177698574,12.587852722123218,2567.9219553131366,138.4663799433554
50.35141088849287,12.587852722123218,-75.52711633273931,12.587852722123218,-0.0,-37.763558166369656,-0.0,201.4056435539715,88.11496905486253,12.587852722123218,2555.334102591013,138.4663799433554
75.52711633273931,12.587852722123218,50.35141088849287,25.175705444246436,-0.0,-37.763558166369656,-0.0,201.4056435539715,62.93926361061609,12.587852722123218,2555.334102591013,125.87852722123218
0.0,25.175705444246436,365.0477289415733,25.175705444246436,-0.0,-37.763558166369656,-0.0,201.4056435539715,62.93926361061609,12.587852722123218,2555.334102591013,125.87852722123218
0.0,75.52711633273931,805.622574215886,12.587852722123218,-0.0,-37.763558166369656,-0.0,201.4056435539715,62.93926361061609,12.587852722123218,2555.334102591013,125.87852722123218
0.0,125.87852722123218,1208.433861323829,-25.175705444246436,25.175705444246436,-37.763558166369656,-0.0,188.81779083184827,50.35141088849287,12.587852722123218,2555.334102591013,125.87852722123218
0.0,176.22993810972505,1321.724535822938,-75.52711633273931,50.35141088849287,-37.763558166369656,-0.0,188.81779083184827,37.763558166369656,-0.0,2555.334102591013,138.4663799433554
0.0,264.3449071645876,1044.7917759362272,-138.4663799433554,75.52711633273931,-37.763558166369656,-0.0,188.81779083184827,12.587852722123218,-0.0,2555.334102591013,125.87852722123218
0.0,465.75055071855905,654.5683415504074,-176.22993810972505,50.35141088849287,-37.763558166369656,-0.0,188.81779083184827,12.587852722123218,-0.0,2555.334102591013,125.87852722123218
0.0,767.8590160495163,0.0,-239.16920172034114,0.0,0.0,-0.0,188.81779083184827,0.0,-0.0,2555.334102591013,113.29067449910896
0.0,1158.082450435336,0.0,-302.10846533095724,0.0,0.0,-62.93926361061609,201.4056435539715,0.0,-0.0,0.0,113.29067449910896
0.0,1435.0152103220469,0.0,0.0,0.0,0.0,-188.81779083184827,0.0,0.0,-0.0,0.0,100.70282177698574
0.0,1283.9609776565683,0.0,0.0,0.0,0.0,-402.811287107943,0.0,0.0,0.0,0.0,0.0
0.0,1309.1366831008147,0.0,0.0,0.0,0.0,-641.9804888282841,0.0,0.0,0.0,0.0,0.0
0.0,881.1496905486252,0.0,0.0,0.0,0.0,-931.5011014371181,0.0,0.0,0.0,0.0,0.0
0.0,465.75055071855905,0.0,0.0,0.0,0.0,-1246.1974194901986,0.0,0.0,0.0,0.0,0.0
0.0,276.9327598867108,0.0,0.0,0.0,0.0,-1170.6703031574593,0.0,0.0,0.0,0.0,0.0
0.0,176.22993810972505,0.0,0.0,0.0,0.0,-1107.7310395468432,0.0,0.0,0.0,0.0,0.0
0.0,75.52711633273931,0.0,0.0,0.0,0.0,-1044.7917759362272,0.0,0.0,0.0,0.0,0.0
0.0,37.763558166369656,0.0,0.0,0.0,0.0,-742.6833106052699,0.0,0.0,0.0,0.0,0.0
0.0,12.587852722123218,0.0,0.0,0.0,0.0,-465.75055071855905,0.0,0.0,0.0,0.0,0.0
0.0,-12.587852722123218,0.0,0.0,0.0,0.0,-251.75705444246435,0.0,0.0,0.0,0.0,0.0
0.0,-0.0,0.0,0.0,0.0,0.0,-138.4663799433554,0.0,0.0,0.0,0.0,0.0
0.0,-0.0,0.0,0.0,0.0,0.0,-62.93926361061609,0.0,0.0,0.0,0.0,0.0
0.0,-0.0,0.0,0.0,0.0,0.0,-25.175705444246436,0.0,0.0,0.0,0.0,0.0
0.0,-12.587852722123218,0.0,0.0,0.0,0.0,-0.0,0.0,0.0,0.0,0.0,0.0
0.0,-12.587852722123218,0.0,0.0,0.0,0.0,-0.0,0.0,0.0,0.0,0.0,0.0
0.0,-0.0,0.0,0.0,0.0,0.0,-0.0,0.0,0.0,0.0,0.0,0.0
0.0,-12.587852722123218,0.0,0.0,0.0,0.0,12.587852722123218,0.0,0.0,0.0,0.0,0.0
0.0,-12.587852722123218,0.0,0.0,0.0,0.0,12.587852722123218,0.0,0.0,0.0,0.0,0.0
0.0,-12.587852722123218,0.0,0.0,0.0,0.0,12.587852722123218,0.0,0.0,0.0,0.0,0.0
0.0,-12.587852722123218,0.0,0.0,0.0,0.0,12.587852722123218,0.0,0.0,0.0,0.0,0.0
0.0,-12.587852722123218,0.0,0.0,0.0,0.0,12.587852722123218,0.0,0.0,0.0,0.0,0.0
0.0,-0.0,0.0,0.0,0.0,0.0,12.587852722123218,0.0,0.0,0.0,0.0,0.0
0.0,-0.0,0.0,0.0,0.0,0.0,12.587852722123218,0.0,0.0,0.0,0.0,0.0
0.0,-0.0,0.0,0.0,0.0,0.0,12.587852722123218,0.0,0.0,0.0,0.0,0.0
0.0,-0.0,0.0,0.0,0.0,0.0,-0.0,0.0,0.0,0.0,0.0,0.0
0.0,-12.587852722123218,0.0,0.0,0.0,0.0,-0.0,0.0,0.0,0.0,0.0,0.0
0.0,-12.587852722123218,0.0,0.0,0.0,0.0,-0.0,0.0,0.0,0.0,0.0,0.0
0.0,-12.587852722123218,0.0,0.0,0.0,0.0,-0.0,0.0,0.0,0.0,0.0,0.0
0.0,-12.587852722123218,0.0,0.0,0.0,0.0,-0.0,0.0,0.0,0.0,0.0,0.0
0.0,-12.587852722123218,0.0,0.0,0.0,0.0,12.587852722123218,0.0,0.0,0.0,0.0,0.0
0.0,-12.587852722123218,0.0,0.0,0.0,0.0,12.587852722123218,0.0,0.0,0.0,0.0,0.0
0.0,-12.587852722123218,0.0,0.0,0.0,0.0,-0.0,0.0,0.0,0.0,0.0,0.0
0.0,-12.587852722123218,0.0,0.0,0.0,0.0,-0.0,0.0,0.0,0.0,0.0,0.0
0.0,-12.587852722123218,0.0,0.0,0.0,0.0,-0.0,0.0,0.0,0.0,0.0,0.0
0.0,-12.587852722123218,0.0,0.0,0.0,0.0,-0.0,0.0,0.0,0.0,0.0,0.0
0.0,-12.587852722123218,0.0,0.0,0.0,0.0,-0.0,0.0,0.0,0.0,0.0,0.0
0.0,-12.587852722123218,0.0,0.0,0.0,0.0,-0.0,0.0,0.0,0.0,0.0,0.0
0.0,-12.587852722123218,0.0,0.0,0.0,0.0,-0.0,0.0,0.0,0.0,0.0,0.0
0.0,-12.587852722123218,0.0,0.0,0.0,0.0,-0.0,0.0,0.0,0.0,0.0,0.0
0.0,-12.587852722123218,0.0,0.0,0.0,0.0,-0.0,0.0,0.0,0.0,0.0,0.0
0.0,-12.587852722123218,0.0,0.0,0.0,0.0,-12.587852722123218,0.0,0.0,0.0,0.0,0.0
0.0,-12.587852722123218,0.0,0.0,0.0,0.0,-12.587852722123218,0.0,0.0,0.0,0.0,0.0
0.0,-12.587852722123218,0.0,0.0,0.0,0.0,-12.587852722123218,0.0,0.0,0.0,0.0,0.0
0.0,-12.587852722123218,0.0,0.0,0.0,0.0,-0.0,0.0,0.0,0.0,0.0,0.0
0.0,-25.175705444246436,0.0,0.0,0.0,0.0,-0.0,0.0,0.0,0.0,0.0,0.0
0.0,-25.175705444246436,0.0,0.0,0.0,0.0,-12.587852722123218,0.0,0.0,0.0,0.0,0.0
0.0,-25.175705444246436,0.0,0.0,0.0,0.0,-12.587852722123218,0.0,0.0,0.0,0.0,0.0
0.0,-25.175705444246436,0.0,0.0,0.0,0.0,-12.587852722123218,0.0,0.0,0.0,0.0,0.0
0.0,-25.175705444246436,0.0,0.0,0.0,0.0,-12.587852722123218,0.0,0.0,0.0,0.0,0.0
0.0,-37.763558166369656,0.0,0.0,0.0,0.0,-12.587852722123218,0.0,0.0,0.0,0.0,0.0
0.0,-37.763558166369656,0.0,0.0,0.0,0.0,-12.587852722123218,0.0,0.0,0.0,0.0,0.0
0.0,-37.763558166369656,0.0,0.0,0.0,0.0,-25.175705444246436,0.0,0.0,0.0,0.0,0.0
0.0,-25.175705444246436,0.0,0.0,0.0,0.0,-25.175705444246436,0.0,0.0,0.0,0.0,0.0
0.0,-12.587852722123218,0.0,0.0,0.0,0.0,-25.175705444246436,0.0,0.0,0.0,0.0,0.0
0.0,-0.0,0.0,0.0,0.0,0.0,-25.175705444246436,0.0,0.0,0.0,0.0,0.0
0.0,12.587852722123218,0.0,0.0,0.0,0.0,-37.763558166369656,0.0,0.0,0.0,0.0,0.0
0.0,25.175705444246436,0.0,0.0,0.0,0.0,-37.763558166369656,0.0,0.0,0.0,0.0,0.0
0.0,50.35141088849287,0.0,0.0,0.0,0.0,-50.35141088849287,0.0,0.0,0.0,0.0,0.0
0.0,75.52711633273931,0.0,0.0,0.0,0.0,-50.35141088849287,0.0,0.0,0.0,0.0,0.0
0.0,88.11496905486253,0.0,0.0,0.0,0.0,-62.93926361061609,0.0,0.0,0.0,0.0,0.0
0.0,75.52711633273931,0.0,0.0,0.0,0.0,-75.52711633273931,0.0,0.0,0.0,0.0,0.0
0.0,88.11496905486253,0.0,0.0,0.0,0.0,-88.11496905486253,0.0,0.0,0.0,0.0,0.0
0.0,100.70282177698574,0.0,0.0,0.0,0.0,-100.70282177698574,0.0,0.0,0.0,0.0,0.0
0.0,100.70282177698574,0.0,0.0,0.0,0.0,-100.70282177698574,0.0,0.0,0.0,0.0,0.0
0.0,88.11496905486253,0.0,0.0,0.0,0.0,-100.70282177698574,0.0,0.0,0.0,0.0,0.0
0.0,88.11496905486253,0.0,0.0,0.0,0.0,-100.70282177698574,0.0,0.0,0.0,0.0,0.0
0.0,75.52711633273931,0.0,0.0,0.0,0.0,-100.70282177698574,0.0,0.0,0.0,0.0,0.0
0.0,75.52711633273931,0.0,0.0,0.0,0.0,-100.70282177698574,0.0,0.0,0.0,0.0,0.0
0.0,88.11496905486253,0.0,0.0,0.0,0.0,-100.70282177698574,0.0,0.0,0.0,0.0,0.0
0.0,88.11496905486253,0.0,0.0,0.0,0.0,-100.70282177698574,0.0,0.0,0.0,0.0,0.0
0.0,88.11496905486253,0.0,0.0,0.0,0.0,-88.11496905486253,0.0,0.0,0.0,0.0,0.0
0.0,88.11496905486253,0.0,0.0,0.0,0.0,-88.11496905486253,0.0,0.0,0.0,0.0,0.0
0.0,88.11496905486253,0.0,0.0,0.0,0.0,-88.11496905486253,0.0,0.0,0.0,0.0,0.0
0.0,75.52711633273931,0.0,0.0,0.0,0.0,-88.11496905486253,0.0,0.0,0.0,0.0,0.0
0.0,75.52711633273931,0.0,0.0,0.0,0.0,-88.11496905486253,0.0,0.0,0.0,0.0,0.0
0.0,62.93926361061609,0.0,0.0,0.0,0.0,-88.11496905486253,0.0,0.0,0.0,0.0,0.0
0.0,62.93926361061609,0.0,0.0,0.0,0.0,-88.11496905486253,0.0,0.0,0.0,0.0,0.0
0.0,62.93926361061609,0.0,0.0,0.0,0.0,-88.11496905486253,0.0,0.0,0.0,0.0,0.0
0.0,75.52711633273931,0.0,0.0,0.0,0.0,-88.11496905486253,0.0,0.0,0.0,0.0,0.0
0.0,62.93926361061609,0.0,0.0,0.0,0.0,-88.11496905486253,0.0,0.0,0.0,0.0,0.0
0.0,62.93926361061609,0.0,0.0,0.0,0.0,-88.11496905486253,0.0,0.0,0.0,0.0,0.0
0.0,62.93926361061609,0.0,0.0,0.0,0.0,-88.11496905486253,0.0,0.0,0.0,0.0,0.0
0.0,75.52711633273931,0.0,0.0,0.0,0.0,-88.11496905486253,0.0,0.0,0.0,0.0,0.0
0.0,75.52711633273931,0.0,0.0,0.0,0.0,-88.11496905486253,0.0,0.0,0.0,0.0,0.0
0.0,75.52711633273931,0.0,0.0,0.0,0.0,-75.52711633273931,0.0,0.0,0.0,0.0,0.0
0.0,75.52711633273931,0.0,0.0,0.0,0.0,-75.52711633273931,0.0,0.0,0.0,0.0,0.0
0.0,88.11496905486253,0.0,0.0,0.0,0.0,-75.52711633273931,0.0,0.0,0.0,0.0,0.0
0.0,100.70282177698574,0.0,0.0,0.0,0.0,-75.52711633273931,0.0,0.0,0.0,0.0,0.0
0.0,113.29067449910896,0.0,0.0,0.0,0.0,-75.52711633273931,0.0,0.0,0.0,0.0,0.0
0.0,125.87852722123218,0.0,0.0,0.0,0.0,-75.52711633273931,0.0,0.0,0.0,0.0,0.0
0.0,138.4663799433554,0.0,0.0,0.0,0.0,-62.93926361061609,0.0,0.0,0.0,0.0,0.0
0.0,138.4663799433554,0.0,0.0,0.0,0.0,-50.35141088849287,0.0,0.0,0.0,0.0,0.0
0.0,163.64208538760184,0.0,0.0,0.0,0.0,-50.35141088849287,0.0,0.0,0.0,0.0,0.0
0.0,201.4056435539715,0.0,0.0,0.0,0.0,-50.35141088849287,0.0,0.0,0.0,0.0,0.0
0.0,213.9934962760947,0.0,0.0,0.0,0.0,-62.93926361061609,0.0,0.0,0.0,0.0,0.0
0.0,213.9934962760947,0.0,0.0,0.0,0.0,-75.52711633273931,0.0,0.0,0.0,0.0,0.0
0.0,201.4056435539715,0.0,0.0,0.0,0.0,-100.70282177698574,0.0,0.0,0.0,0.0,0.0
0.0,201.4056435539715,0.0,0.0,0.0,0.0,-125.87852722123218,0.0,0.0,0.0,0.0,0.0
0.0,188.81779083184827,0.0,0.0,0.0,0.0,-138.4663799433554,0.0,0.0,0.0,0.0,0.0
0.0,176.22993810972505,0.0,0.0,0.0,0.0,-151.05423266547862,0.0,0.0,0.0,0.0,0.0
0.0,163.64208538760184,0.0,0.0,0.0,0.0,-163.64208538760184,0.0,0.0,0.0,0.0,0.0
0.0,151.05423266547862,0.0,0.0,0.0,0.0,-163.64208538760184,0.0,0.0,0.0,0.0,0.0
0.0,113.29067449910896,0.0,0.0,0.0,0.0,-163.64208538760184,0.0,0.0,0.0,0.0,0.0
0.0,88.11496905486253,0.0,0.0,0.0,0.0,-163.64208538760184,0.0,0.0,0.0,0.0,0.0
0.0,75.52711633273931,0.0,0.0,0.0,0.0,-163.64208538760184,0.0,0.0,0.0,0.0,0.0
0.0,50.35141088849287,0.0,0.0,0.0,0.0,-151.05423266547862,0.0,0.0,0.0,0.0,0.0
0.0,25.175705444246436,0.0,0.0,0.0,0.0,-138.4663799433554,0.0,0.0,0.0,0.0,0.0
0.0,12.587852722123218,0.0,0.0,0.0,0.0,-125.87852722123218,0.0,0.0,0.0,0.0,0.0
0.0,12.587852722123218,0.0,0.0,0.0,0.0,-113.29067449910896,0.0,0.0,0.0,0.0,0.0
0.0,12.587852722123218,0.0,0.0,0.0,0.0,-100.70282177698574,0.0,0.0,0.0,0.0,0.0
0.0,-0.0,0.0,0.0,0.0,0.0,-88.11496905486253,0.0,0.0,0.0,0.0,0.0
0.0,-0.0,0.0,0.0,0.0,0.0,-88.11496905486253,0.0,0.0,0.0,0.0,0.0
0.0,-0.0,0.0,0.0,0.0,0.0,-88.11496905486253,0.0,0.0,0.0,0.0,0.0
0.0,-0.0,0.0,0.0,0.0,0.0,-75.52711633273931,0.0,0.0,0.0,0.0,0.0
0.0,-0.0,0.0,0.0,0.0,0.0,-75.52711633273931,0.0,0.0,0.0,0.0,0.0
0.0,-0.0,0.0,0.0,0.0,0.0,-75.52711633273931,0.0,0.0,0.0,0.0,0.0
0.0,50.35141088849287,0.0,0.0,0.0,0.0,-88.11496905486253,0.0,0.0,0.0,0.0,0.0
0.0,113.29067449910896,0.0,0.0,0.0,0.0,-88.11496905486253,0.0,0.0,0.0,0.0,0.0
0.0,163.64208538760184,0.0,0.0,0.0,0.0,-75.52711633273931,0.0,0.0,0.0,0.0,0.0
0.0,264.3449071645876,0.0,0.0,0.0,0.0,-75.52711633273931,0.0,0.0,0.0,0.0,0.0
0.0,453.16269799643584,0.0,0.0,0.0,0.0,-88.11496905486253,0.0,0.0,0.0,0.0,0.0
0.0,742.6833106052699,0.0,0.0,0.0,0.0,-75.52711633273931,0.0,0.0,0.0,0.0,0.0
0.0,1132.9067449910897,0.0,0.0,0.0,0.0,-113.29067449910896,0.0,0.0,0.0,0.0,0.0
0.0,1447.60306304417,0.0,0.0,0.0,0.0,-226.58134899821792,0.0,0.0,0.0,0.0,0.0
0.0,1233.6095667680754,0.0,0.0,0.0,0.0,-402.811287107943,0.0,0.0,0.0,0.0,0.0
0.0,1346.9002412671844,0.0,0.0,0.0,0.0,-641.9804888282841,0.0,0.0,0.0,0.0,0.0
0.0,918.9132487149949,0.0,0.0,0.0,0.0,-918.9132487149949,0.0,0.0,0.0,0.0,0.0
0.0,478.33840344068227,0.0,0.0,0.0,0.0,-1233.6095667680754,0.0,0.0,0.0,0.0,0.0
0.0,226.58134899821792,0.0,0.0,0.0,0.0,-1447.60306304417,0.0,0.0,0.0,0.0,0.0
0.0,100.70282177698574,0.0,0.0,0.0,0.0,-1334.3123885450611,0.0,0.0,0.0,0.0,0.0
0.0,12.587852722123218,0.0,0.0,0.0,0.0,-1107.7310395468432,0.0,0.0,0.0,0.0,0.0
0.0,-25.175705444246436,0.0,0.0,0.0,0.0,-818.2104269380092,0.0,0.0,0.0,0.0,0.0
0.0,-25.175705444246436,0.0,0.0,0.0,0.0,-541.2776670512984,0.0,0.0,0.0,0.0,0.0
0.0,-25.175705444246436,0.0,0.0,0.0,0.0,-314.69631805308046,0.0,0.0,0.0,0.0,0.0
0.0,-25.175705444246436,0.0,0.0,0.0,0.0,-176.22993810972505,0.0,0.0,0.0,0.0,0.0
0.0,-25.175705444246436,0.0,0.0,0.0,0.0,-100.70282177698574,0.0,0.0,0.0,0.0,0.0
0.0,-37.763558166369656,0.0,0.0,0.0,0.0,-62.93926361061609,0.0,0.0,0.0,0.0,0.0
0.0,-37.763558166369656,0.0,0.0,0.0,0.0,-37.763558166369656,0.0,0.0,0.0,0.0,0.0
0.0,-37.763558166369656,0.0,0.0,0.0,0.0,-25.175705444246436,0.0,0.0,0.0,0.0,0.0
0.0,-25.175705444246436,0.0,0.0,0.0,0.0,-25.175705444246436,0.0,0.0,0.0,0.0,0.0
0.0,-25.175705444246436,0.0,0.0,0.0,0.0,-25.175705444246436,0.0,0.0,0.0,0.0,0.0
0.0,-25.175705444246436,0.0,0.0,0.0,0.0,-12.587852722123218,0.0,0.0,0.0,0.0,0.0
0.0,-25.175705444246436,0.0,0.0,0.0,0.0,-12.587852722123218,0.0,0.0,0.0,0.0,0.0
0.0,-25.175705444246436,0.0,0.0,0.0,0.0,-25.175705444246436,0.0,0.0,0.0,0.0,0.0
0.0,-25.175705444246436,0.0,0.0,0.0,0.0,-25.175705444246436,0.0,0.0,0.0,0.0,0.0
0.0,-12.587852722123218,0.0,0.0,0.0,0.0,-25.175705444246436,0.0,0.0,0.0,0.0,0.0
0.0,-12.587852722123218,0.0,0.0,0.0,0.0,-25.175705444246436,0.0,0.0,0.0,0.0,0.0
0.0,-12.587852722123218,0.0,0.0,0.0,0.0,-12.587852722123218,0.0,0.0,0.0,0.0,0.0
0.0,-25.175705444246436,0.0,0.0,0.0,0.0,-0.0,0.0,0.0,0.0,0.0,0.0
0.0,-25.175705444246436,0.0,0.0,0.0,0.0,-0.0,0.0,0.0,0.0,0.0,0.0
0.0,-25.175705444246436,0.0,0.0,0.0,0.0,-12.587852722123218,0.0,0.0,0.0,0.0,0.0
0.0,-25.175705444246436,0.0,0.0,0.0,0.0,-12.587852722123218,0.0,0.0,0.0,0.0,0.0
0.0,-25.175705444246436,0.0,0.0,0.0,0.0,-12.587852722123218,0.0,0.0,0.0,0.0,0.0
0.0,-25.175705444246436,0.0,0.0,0.0,0.0,-0.0,0.0,0.0,0.0,0.0,0.0
0.0,-37.763558166369656,0.0,0.0,0.0,0.0,-0.0,0.0,0.0,0.0,0.0,0.0
0.0,-37.763558166369656,0.0,0.0,0.0,0.0,-0.0,0.0,0.0,0.0,0.0,0.0
0.0,-25.175705444246436,0.0,0.0,0.0,0.0,-0.0,0.0,0.0,0.0,0.0,0.0
0.0,-37.763558166369656,0.0,0.0,0.0,0.0,-0.0,0.0,0.0,0.0,0.0,0.0
0.0,-37.763558166369656,0.0,0.0,0.0,0.0,-0.0,0.0,0.0,0.0,0.0,0.0
0.0,-37.763558166369656,0.0,0.0,0.0,0.0,-0.0,0.0,0.0,0.0,0.0,0.0
0.0,-37.763558166369656,0.0,0.0,0.0,0.0,12.587852722123218,0.0,0.0,0.0,0.0,0.0
0.0,-37.763558166369656,0.0,0.0,0.0,0.0,-0.0,0.0,0.0,0.0,0.0,0.0
0.0,-37.763558166369656,0.0,0.0,0.0,0.0,-0.0,0.0,0.0,0.0,0.0,0.0
0.0,-37.763558166369656,0.0,0.0,0.0,0.0,-0.0,0.0,0.0,0.0,0.0,0.0
0.0,-37.763558166369656,0.0,0.0,0.0,0.0,-0.0,0.0,0.0,0.0,0.0,0.0
0.0,-37.763558166369656,0.0,0.0,0.0,0.0,-0.0,0.0,0.0,0.0,0.0,0.0
0.0,-37.763558166369656,0.0,0.0,0.0,0.0,-0.0,0.0,0.0,0.0,0.0,0.0
0.0,-25.175705444246436,0.0,0.0,0.0,0.0,-0.0,0.0,0.0,0.0,0.0,0.0
0.0,-37.763558166369656,0.0,0.0,0.0,0.0,12.587852722123218,0.0,0.0,0.0,0.0,0.0
0.0,-37.763558166369656,0.0,0.0,0.0,0.0,12.587852722123218,0.0,0.0,0.0,0.0,0.0
0.0,-50.35141088849287,0.0,0.0,0.0,0.0,12.587852722123218,0.0,0.0,0.0,0.0,0.0
0.0,-50.35141088849287,0.0,0.0,0.0,0.0,12.587852722123218,0.0,0.0,0.0,0.0,0.0
0.0,-37.763558166369656,0.0,0.0,0.0,0.0,12.587852722123218,0.0,0.0,0.0,0.0,0.0
0.0,-37.763558166369656,0.0,0.0,0.0,0.0,12.587852722123218,0.0,0.0,0.0,0.0,0.0
0.0,-37.763558166369656,0.0,0.0,0.0,0.0,12.587852722123218,0.0,0.0,0.0,0.0,0.0
0.0,-37.763558166369656,0.0,0.0,0.0,0.0,12.587852722123218,0.0,0.0,0.0,0.0,0.0
0.0,-37.763558166369656,0.0,0.0,0.0,0.0,12.587852722123218,0.0,0.0,0.0,0.0,0.0
0.0,-37.763558166369656,0.0,0.0,0.0,0.0,12.587852722123218,0.0,0.0,0.0,0.0,0.0
0.0,-25.175705444246436,0.0,0.0,0.0,0.0,12.587852722123218,0.0,0.0,0.0,0.0,0.0
0.0,-0.0,0.0,0.0,0.0,0.0,-0.0,0.0,0.0,0.0,0.0,0.0
0.0,25.175705444246436,0.0,0.0,0.0,0.0,-0.0,0.0,0.0,0.0,0.0,0.0
0.0,37.763558166369656,0.0,0.0,0.0,0.0,-0.0,0.0,0.0,0.0,0.0,0.0
0.0,62.93926361061609,0.0,0.0,0.0,0.0,-0.0,0.0,0.0,0.0,0.0,0.0
0.0,75.52711633273931,0.0,0.0,0.0,0.0,-12.587852722123218,0.0,0.0,0.0,0.0,0.0
0.0,75.52711633273931,0.0,0.0,0.0,0.0,-37.763558166369656,0.0,0.0,0.0,0.0,0.0
0.0,88.11496905486253,0.0,0.0,0.0,0.0,-37.763558166369656,0.0,0.0,0.0,0.0,0.0
0.0,100.70282177698574,0.0,0.0,0.0,0.0,-37.763558166369656,0.0,0.0,0.0,0.0,0.0
0.0,100.70282177698574,0.0,0.0,0.0,0.0,-37.763558166369656,0.0,0.0,0.0,0.0,0.0
0.0,100.70282177698574,0.0,0.0,0.0,0.0,-50.35141088849287,0.0,0.0,0.0,0.0,0.0
0.0,100.70282177698574,0.0,0.0,0.0,0.0,-50.35141088849287,0.0,0.0,0.0,0.0,0.0
0.0,88.11496905486253,0.0,0.0,0.0,0.0,-50.35141088849287,0.0,0.0,0.0,0.0,0.0
0.0,88.11496905486253,0.0,0.0,0.0,0.0,-50.35141088849287,0.0,0.0,0.0,0.0,0.0
0.0,88.11496905486253,0.0,0.0,0.0,0.0,-37.763558166369656,0.0,0.0,0.0,0.0,0.0
0.0,100.70282177698574,0.0,0.0,0.0,0.0,-37.763558166369656,0.0,0.0,0.0,0.0,0.0
0.0,100.70282177698574,0.0,0.0,0.0,0.0,-37.763558166369656,0.0,0.0,0.0,0.0,0.0
0.0,88.11496905486253,0.0,0.0,0.0,0.0,-37.763558166369656,0.0,0.0,0.0,0.0,0.0
0.0,88.11496905486253,0.0,0.0,0.0,0.0,-37.763558166369656,0.0,0.0,0.0,0.0,0.0
0.0,88.11496905486253,0.0,0.0,0.0,0.0,-37.763558166369656,0.0,0.0,0.0,0.0,0.0
0.0,88.11496905486253,0.0,0.0,0.0,0.0,-25.175705444246436,0.0,0.0,0.0,0.0,0.0
0.0,88.11496905486253,0.0,0.0,0.0,0.0,-25.175705444246436,0.0,0.0,0.0,0.0,0.0
0.0,75.52711633273931,0.0,0.0,0.0,0.0,-25.175705444246436,0.0,0.0,0.0,0.0,0.0
0.0,75.52711633273931,0.0,0.0,0.0,0.0,-12.587852722123218,0.0,0.0,0.0,0.0,0.0
0.0,75.52711633273931,0.0,0.0,0.0,0.0,-12.587852722123218,0.0,0.0,0.0,0.0,0.0
0.0,75.52711633273931,0.0,0.0,0.0,0.0,-12.587852722123218,0.0,0.0,0.0,0.0,0.0
0.0,62.93926361061609,0.0,0.0,0.0,0.0,-12.587852722123218,0.0,0.0,0.0,0.0,0.0
0.0,62.93926361061609,0.0,0.0,0.0,0.0,-0.0,0.0,0.0,0.0,0.0,0.0
0.0,62.93926361061609,0.0,0.0,0.0,0.0,-0.0,0.0,0.0,0.0,0.0,0.0
0.0,75.52711633273931,0.0,0.0,0.0,0.0,-0.0,0.0,0.0,0.0,0.0,0.0
0.0,75.52711633273931,0.0,0.0,0.0,0.0,-0.0,0.0,0.0,0.0,0.0,0.0
0.0,75.52711633273931,0.0,0.0,0.0,0.0,-0.0,0.0,0.0,0.0,0.0,0.0
0.0,75.52711633273931,0.0,0.0,0.0,0.0,12.587852722123218,0.0,0.0,0.0,0.0,0.0
0.0,100.70282177698574,0.0,0.0,0.0,0.0,12.587852722123218,0.0,0.0,0.0,0.0,0.0
0.0,113.29067449910896,0.0,0.0,0.0,0.0,12.587852722123218,0.0,0.0,0.0,0.0,0.0
0.0,113.29067449910896,0.0,0.0,0.0,0.0,25.175705444246436,0.0,0.0,0.0,0.0,0.0
0.0,125.87852722123218,0.0,0.0,0.0,0.0,25.175705444246436,0.0,0.0,0.0,0.0,0.0
0.0,138.4663799433554,0.0,0.0,0.0,0.0,37.763558166369656,0.0,0.0,0.0,0.0,0.0
0.0,163.64208538760184,0.0,0.0,0.0,0.0,50.35141088849287,0.0,0.0,0.0,0.0,0.0
0.0,201.4056435539715,0.0,0.0,0.0,0.0,50.35141088849287,0.0,0.0,0.0,0.0,0.0
0.0,213.9934962760947,0.0,0.0,0.0,0.0,37.763558166369656,0.0,0.0,0.0,0.0,0.0
0.0,226.58134899821792,0.0,0.0,0.0,0.0,25.175705444246436,0.0,0.0,0.0,0.0,0.0
0.0,226.58134899821792,0.0,0.0,0.0,0.0,-0.0,0.0,0.0,0.0,0.0,0.0
0.0,226.58134899821792,0.0,0.0,0.0,0.0,-12.587852722123218,0.0,0.0,0.0,0.0,0.0
0.0,213.9934962760947,0.0,0.0,0.0,0.0,-37.763558166369656,0.0,0.0,0.0,0.0,0.0
0.0,201.4056435539715,0.0,0.0,0.0,0.0,-62.93926361061609,0.0,0.0,0.0,0.0,0.0
0.0,188.81779083184827,0.0,0.0,0.0,0.0,-75.52711633273931,0.0,0.0,0.0,0.0,0.0
0.0,176.22993810972505,0.0,0.0,0.0,0.0,-62.93926361061609,0.0,0.0,0.0,0.0,0.0
0.0,163.64208538760184,0.0,0.0,0.0,0.0,-62.93926361061609,0.0,0.0,0.0,0.0,0.0
0.0,138.4663799433554,0.0,0.0,0.0,0.0,-50.35141088849287,0.0,0.0,0.0,0.0,0.0
0.0,113.29067449910896,0.0,0.0,0.0,0.0,-50.35141088849287,0.0,0.0,0.0,0.0,0.0
0.0,88.11496905486253,0.0,0.0,0.0,0.0,-37.763558166369656,0.0,0.0,0.0,0.0,0.0
0.0,62.93926361061609,0.0,0.0,0.0,0.0,-25.175705444246436,0.0,0.0,0.0,0.0,0.0
0.0,50.35141088849287,0.0,0.0,0.0,0.0,-12.587852722123218,0.0,0.0,0.0,0.0,0.0
0.0,50.35141088849287,0.0,0.0,0.0,0.0,-0.0,0.0,0.0,0.0,0.0,0.0
0.0,50.35141088849287,0.0,0.0,0.0,0.0,12.587852722123218,0.0,0.0,0.0,0.0,0.0
0.0,50.35141088849287,0.0,0.0,0.0,0.0,12.587852722123218,0.0,0.0,0.0,0.0,0.0
0.0,37.763558166369656,0.0,0.0,0.0,0.0,25.175705444246436,0.0,0.0,0.0,0.0,0.0
0.0,37.763558166369656,0.0,0.0,0.0,0.0,25.175705444246436,0.0,0.0,0.0,0.0,0.0
0.0,50.35141088849287,0.0,0.0,0.0,0.0,37.763558166369656,0.0,0.0,0.0,0.0,0.0
0.0,50.35141088849287,0.0,0.0,0.0,0.0,37.763558166369656,0.0,0.0,0.0,0.0,0.0
0.0,50.35141088849287,0.0,0.0,0.0,0.0,37.763558166369656,0.0,0.0,0.0,0.0,0.0
0.0,75.52711633273931,0.0,0.0,0.0,0.0,37.763558166369656,0.0,0.0,0.0,0.0,0.0
0.0,138.4663799433554,0.0,0.0,0.0,0.0,37.763558166369656,0.0,0.0,0.0,0.0,0.0
0.0,176.22993810972505,0.0,0.0,0.0,0.0,37.763558166369656,0.0,0.0,0.0,0.0,0.0
0.0,251.75705444246435,0.0,0.0,0.0,0.0,37.763558166369656,0.0,0.0,0.0,0.0,0.0
0.0,415.3991398300662,0.0,0.0,0.0,0.0,37.763558166369656,0.0,0.0,0.0,0.0,0.0
0.0,692.331899716777,0.0,0.0,0.0,0.0,62.93926361061609,0.0,0.0,0.0,0.0,0.0
0.0,1082.5553341025968,0.0,0.0,0.0,0.0,62.93926361061609,0.0,0.0,0.0,0.0,0.0
0.0,1510.5423266547862,0.0,0.0,0.0,0.0,-37.763558166369656,0.0,0.0,0.0,0.0,0.0
0.0,1409.8395048778004,0.0,0.0,0.0,0.0,-226.58134899821792,0.0,0.0,0.0,0.0,0.0
0.0,1422.4273575999237,0.0,0.0,0.0,0.0,-440.5748452743126,0.0,0.0,0.0,0.0,0.0
0.0,1007.0282177698574,0.0,0.0,0.0,0.0,-717.5076051610234,0.0,0.0,0.0,0.0,0.0
0.0,528.6898143291752,0.0,0.0,0.0,0.0,-1120.3188922689665,0.0,0.0,0.0,0.0,0.0
0.0,213.9934962760947,0.0,0.0,0.0,0.0,-1271.373124934445,0.0,0.0,0.0,0.0,0.0
0.0,100.70282177698574,0.0,0.0,0.0,0.0,-1258.7852722123218,0.0,0.0,0.0,0.0,0.0
0.0,12.587852722123218,0.0,0.0,0.0,0.0,-1032.203923214104,0.0,0.0,0.0,0.0,0.0
0.0,-37.763558166369656,0.0,0.0,0.0,0.0,-730.0954578831467,0.0,0.0,0.0,0.0,0.0
0.0,-25.175705444246436,0.0,0.0,0.0,0.0,-440.5748452743126,0.0,0.0,0.0,0.0,0.0
0.0,-25.175705444246436,0.0,0.0,0.0,0.0,-213.9934962760947,0.0,0.0,0.0,0.0,0.0
0.0,-37.763558166369656,0.0,0.0,0.0,0.0,-62.93926361061609,0.0,0.0,0.0,0.0,0.0
0.0,-37.763558166369656,0.0,0.0,0.0,0.0,25.175705444246436,0.0,0.0,0.0,0.0,0.0
0.0,-25.175705444246436,0.0,0.0,0.0,0.0,75.52711633273931,0.0,0.0,0.0,0.0,0.0
0.0,-37.763558166369656,0.0,0.0,0.0,0.0,100.70282177698574,0.0,0.0,0.0,0.0,0.0
0.0,-37.763558166369656,0.0,0.0,0.0,0.0,100.70282177698574,0.0,0.0,0.0,0.0,0.0
0.0,-25.175705444246436,0.0,0.0,0.0,0.0,113.29067449910896,0.0,0.0,0.0,0.0,0.0
0.0,-25.175705444246436,0.0,0.0,0.0,0.0,113.29067449910896,0.0,0.0,0.0,0.0,0.0
0.0,-25.175705444246436,0.0,0.0,0.0,0.0,125.87852722123218,0.0,0.0,0.0,0.0,0.0
0.0,-25.175705444246436,0.0,0.0,0.0,0.0,125.87852722123218,0.0,0.0,0.0,0.0,0.0
0.0,-25.175705444246436,0.0,0.0,0.0,0.0,125.87852722123218,0.0,0.0,0.0,0.0,0.0
0.0,-25.175705444246436,0.0,0.0,0.0,0.0,125.87852722123218,0.0,0.0,0.0,0.0,0.0
