-1434.7142108023147,62.92606187729451,-88.09648662821232,nan,nan,nan,nan,nan,-75.51127425275341,12.585212375458902,nan,nan
-1434.7142108023147,62.92606187729451,-100.68169900367121,-0.0,-37.755637126376705,nan,nan,25.170424750917803,-57.891976927110875,12.585212375458902,nan,nan
-1434.7142108023147,12.585212375458902,-100.68169900367121,-12.585212375458902,-25.170424750917803,nan,314.63030938647256,25.170424750917803,-40.27267960146852,12.585212375458902,nan,nan
-1434.7142108023147,-37.755637126376705,-100.68169900367121,-12.585212375458902,-25.170424750917803,nan,-12.585212375458902,12.585212375458902,-22.653382275825987,25.170424750917803,-37.755637126376705,-12.585212375458902
-1434.7142108023147,-88.09648662821232,-100.68169900367121,-0.0,-25.170424750917803,25.170424750917803,-12.585212375458902,12.585212375458902,-5.034084950183632,15.102254850550718,-37.755637126376705,-12.585212375458902
-1434.7142108023147,-138.43733613004792,-100.68169900367121,-0.0,-25.170424750917803,12.585212375458902,-12.585212375458902,12.585212375458902,12.585212375458902,5.034084950183632,-37.755637126376705,-12.585212375458902
-1434.7142108023147,-138.43733613004792,-100.68169900367121,-0.0,-25.170424750917803,12.585212375458902,53.48715259570033,12.585212375458902,12.585212375458902,-5.034084950183632,-37.755637126376705,-12.585212375458902
-1434.7142108023147,-138.43733613004792,-88.09648662821232,-0.0,-25.170424750917803,12.585212375458902,119.55951756685957,-0.0,-0.0,-15.102254850550718,-37.755637126376705,-12.585212375458902
-1434.7142108023147,-151.02254850550682,-88.09648662821232,-0.0,-25.170424750917803,12.585212375458902,185.6318825380188,-0.0,-0.0,-25.170424750917803,-37.755637126376705,-12.585212375458902
-1434.7142108023147,-151.02254850550682,-75.51127425275341,-0.0,-25.170424750917803,12.585212375458902,251.70424750917803,-0.0,-0.0,-25.170424750917803,-37.755637126376705,-12.585212375458902
-1434.7142108023147,-138.43733613004792,-62.92606187729451,-0.0,-25.170424750917803,12.585212375458902,251.70424750917803,-0.0,-0.0,-25.170424750917803,-37.755637126376705,-12.585212375458902
-1434.7142108023147,-138.43733613004792,-50.340849501835606,-0.0,-25.170424750917803,12.585212375458902,264.2894598846369,-0.0,-0.0,-25.170424750917803,-37.755637126376705,-12.585212375458902
-1434.7142108023147,-138.43733613004792,-37.755637126376705,-0.0,-25.170424750917803,12.585212375458902,264.2894598846369,-0.0,-0.0,-12.585212375458902,-37.755637126376705,-12.585212375458902
-1434.7142108023147,-125.85212375458902,-25.170424750917803,-0.0,-25.170424750917803,12.585212375458902,276.87467226009585,-0.0,-0.0,-12.585212375458902,-37.755637126376705,-12.585212375458902
-1434.7142108023147,-100.68169900367121,-12.585212375458902,-0.0,-25.170424750917803,12.585212375458902,276.87467226009585,25.170424750917803,-12.585212375458902,-12.585212375458902,-25.170424750917803,-12.585212375458902
-1434.7142108023147,-75.51127425275341,-12.585212375458902,-0.0,-25.170424750917803,12.585212375458902,276.87467226009585,62.92606187729451,-12.585212375458902,-12.585212375458902,-25.170424750917803,-12.585212375458902
-1434.7142108023147,-62.92606187729451,-0.0,-0.0,-25.170424750917803,12.585212375458902,276.87467226009585,138.43733613004792,-12.585212375458902,-12.585212375458902,-25.170424750917803,-0.0
-1434.7142108023147,-37.755637126376705,-0.0,-0.0,-25.170424750917803,-0.0,276.87467226009585,251.70424750917803,-12.585212375458902,-12.585212375458902,-25.170424750917803,-0.0
-1434.7142108023147,-12.585212375458902,-0.0,-0.0,-25.170424750917803,-0.0,264.2894598846369,352.3859465128493,12.585212375458902,-12.585212375458902,-25.170424750917803,-0.0
-1434.7142108023147,-0.0,-0.0,-0.0,-25.170424750917803,-0.0,251.70424750917803,465.65285789197935,25.170424750917803,-12.585212375458902,-25.170424750917803,-0.0
-497.1158888306266,12.585212375458902,-0.0,-0.0,-25.170424750917803,-0.0,226.53382275826021,528.5789197692739,62.92606187729451,-12.585212375458902,-25.170424750917803,-0.0
440.48243314106156,37.755637126376705,-0.0,-0.0,-25.170424750917803,-0.0,188.77818563188353,553.7493445201917,125.85212375458902,-12.585212375458902,-25.170424750917803,-0.0
25.170424750917803,50.340849501835606,-0.0,-0.0,-12.585212375458902,-0.0,163.6077608809657,503.40849501835606,176.19297325642464,-12.585212375458902,-25.170424750917803,-0.0
25.170424750917803,62.92606187729451,-0.0,-0.0,-12.585212375458902,-0.0,125.85212375458902,339.80073413739035,213.94861038280132,-12.585212375458902,-25.170424750917803,-0.0
25.170424750917803,62.92606187729451,-0.0,-0.0,-12.585212375458902,-0.0,100.68169900367121,113.26691137913011,-465.65285789197935,-12.585212375458902,-25.170424750917803,-0.0
-3.1463030938647254,62.92606187729451,-0.0,-0.0,-12.585212375458902,-0.0,75.51127425275341,-176.19297325642464,-453.06764551652043,-12.585212375458902,-25.170424750917803,-0.0
-31.463030938647254,62.92606187729451,-0.0,-0.0,-12.585212375458902,-0.0,50.340849501835606,-478.2380702674383,-440.48243314106156,-12.585212375458902,-25.170424750917803,-0.0
-59.779758783429784,62.92606187729451,-0.0,-0.0,-12.585212375458902,-0.0,25.170424750917803,-717.3571054011574,-515.9937073938149,-12.585212375458902,-25.170424750917803,-0.0
-88.09648662821232,75.51127425275341,-0.0,-0.0,-12.585212375458902,-0.0,12.585212375458902,-943.8909281594176,-515.9937073938149,-12.585212375458902,-25.170424750917803,-0.0
-88.09648662821232,75.51127425275341,-0.0,-0.0,-12.585212375458902,-0.0,-0.0,-1170.4247509176778,-515.9937073938149,-0.0,-25.170424750917803,-0.0
-75.51127425275341,75.51127425275341,-0.0,-0.0,-12.585212375458902,-0.0,-12.585212375458902,-1459.8846355532326,-515.9937073938149,-0.0,-25.170424750917803,-0.0
-88.09648662821232,75.51127425275341,-0.0,-0.0,-25.170424750917803,-0.0,-12.585212375458902,-1648.6628211851162,-515.9937073938149,-0.0,-25.170424750917803,-0.0
-88.09648662821232,75.51127425275341,-0.0,-0.0,-25.170424750917803,-0.0,-12.585212375458902,-1636.0776088096572,-528.5789197692739,-0.0,-25.170424750917803,-0.0
-88.09648662821232,62.92606187729451,-0.0,-0.0,-12.585212375458902,-0.0,-12.585212375458902,-1459.8846355532326,-553.7493445201917,-0.0,-25.170424750917803,-0.0
-88.09648662821232,62.92606187729451,-0.0,-0.0,-12.585212375458902,-0.0,-25.170424750917803,-1132.6691137913012,-818.0388044048286,-0.0,-12.585212375458902,-0.0
-88.09648662821232,75.51127425275341,-0.0,-0.0,-12.585212375458902,-0.0,-25.170424750917803,-616.6754063974862,-1031.9874147876299,-0.0,-12.585212375458902,-0.0
-75.51127425275341,75.51127425275341,-0.0,-0.0,-12.585212375458902,-0.0,-25.170424750917803,-75.51127425275341,-1057.1578395385477,-0.0,-12.585212375458902,-0.0
-75.51127425275341,75.51127425275341,-0.0,-0.0,-12.585212375458902,-0.0,-25.170424750917803,289.4598846355547,-931.3057157839587,-0.0,-12.585212375458902,-0.0
-62.92606187729451,62.92606187729451,-0.0,-0.0,-12.585212375458902,-0.0,-25.170424750917803,427.89722076560264,-667.0162558993218,-0.0,-12.585212375458902,12.585212375458902
-50.340849501835606,62.92606187729451,-0.0,-0.0,-12.585212375458902,-0.0,-25.170424750917803,390.1415836392259,-176.19297325642464,-0.0,-0.0,12.585212375458902
-37.755637126376705,62.92606187729451,-0.0,-0.0,-12.585212375458902,-0.0,-25.170424750917803,289.4598846355547,339.80073413739035,-0.0,-0.0,12.585212375458902
-25.170424750917803,62.92606187729451,-0.0,12.585212375458902,-12.585212375458902,-0.0,-25.170424750917803,176.19297325642464,667.0162558993218,-0.0,-0.0,25.170424750917803
-12.585212375458902,62.92606187729451,-0.0,-0.0,-12.585212375458902,-0.0,-25.170424750917803,125.85212375458902,805.4535920293697,12.585212375458902,12.585212375458902,25.170424750917803
-0.0,50.340849501835606,-12.585212375458902,-0.0,-12.585212375458902,-0.0,-25.170424750917803,138.43733613004792,654.4310435238629,12.585212375458902,37.755637126376705,37.755637126376705
-0.0,50.340849501835606,-12.585212375458902,-0.0,-12.585212375458902,-0.0,-25.170424750917803,151.02254850550682,377.55637126376706,12.585212375458902,50.340849501835606,50.340849501835606
12.585212375458902,50.340849501835606,-12.585212375458902,-0.0,-12.585212375458902,-0.0,-25.170424750917803,151.02254850550682,125.85212375458902,25.170424750917803,50.340849501835606,50.340849501835606
25.170424750917803,37.755637126376705,-12.585212375458902,-0.0,-12.585212375458902,-0.0,-25.170424750917803,151.02254850550682,-12.585212375458902,25.170424750917803,50.340849501835606,50.340849501835606
25.170424750917803,37.755637126376705,-0.0,-0.0,-12.585212375458902,-0.0,-25.170424750917803,151.02254850550682,-37.755637126376705,37.755637126376705,62.92606187729451,62.92606187729451
25.170424750917803,37.755637126376705,-12.585212375458902,-0.0,-12.585212375458902,-0.0,-25.170424750917803,151.02254850550682,-25.170424750917803,50.340849501835606,50.340849501835606,62.92606187729451
25.170424750917803,37.755637126376705,-12.585212375458902,-0.0,-12.585212375458902,-0.0,-12.585212375458902,163.6077608809657,-25.170424750917803,62.92606187729451,37.755637126376705,50.340849501835606
25.170424750917803,25.170424750917803,-12.585212375458902,-0.0,-12.585212375458902,-0.0,-12.585212375458902,163.6077608809657,-12.585212375458902,75.51127425275341,25.170424750917803,50.340849501835606
25.170424750917803,25.170424750917803,-12.585212375458902,-0.0,-12.585212375458902,-0.0,-12.585212375458902,163.6077608809657,-12.585212375458902,75.51127425275341,25.170424750917803,50.340849501835606
37.755637126376705,25.170424750917803,-12.585212375458902,-0.0,-12.585212375458902,-0.0,-12.585212375458902,151.02254850550682,-0.0,88.09648662821232,25.170424750917803,50.340849501835606
37.755637126376705,12.585212375458902,-25.170424750917803,-0.0,-12.585212375458902,-0.0,-12.585212375458902,125.85212375458902,12.585212375458902,75.51127425275341,25.170424750917803,50.340849501835606
25.170424750917803,12.585212375458902,-25.170424750917803,-0.0,-0.0,-0.0,-12.585212375458902,100.68169900367121,12.585212375458902,50.340849501835606,12.585212375458902,37.755637126376705
25.170424750917803,12.585212375458902,-25.170424750917803,-12.585212375458902,-0.0,-0.0,-12.585212375458902,75.51127425275341,12.585212375458902,37.755637126376705,-0.0,25.170424750917803
25.170424750917803,-0.0,-25.170424750917803,-12.585212375458902,-0.0,-0.0,-0.0,62.92606187729451,25.170424750917803,37.755637126376705,-0.0,25.170424750917803
25.170424750917803,-0.0,-25.170424750917803,-25.170424750917803,-0.0,-0.0,-0.0,62.92606187729451,12.585212375458902,37.755637126376705,-0.0,25.170424750917803
25.170424750917803,12.585212375458902,-25.170424750917803,-37.755637126376705,12.585212375458902,-0.0,-0.0,50.340849501835606,-12.585212375458902,25.170424750917803,-0.0,12.585212375458902
25.170424750917803,25.170424750917803,-25.170424750917803,-50.340849501835606,12.585212375458902,-0.0,-0.0,50.340849501835606,-37.755637126376705,12.585212375458902,-0.0,12.585212375458902
25.170424750917803,12.585212375458902,-25.170424750917803,-62.92606187729451,12.585212375458902,-0.0,-0.0,50.340849501835606,-62.92606187729451,12.585212375458902,-12.585212375458902,-0.0
25.170424750917803,12.585212375458902,-25.170424750917803,-88.09648662821232,25.170424750917803,-0.0,-0.0,50.340849501835606,-88.09648662821232,12.585212375458902,-25.170424750917803,-0.0
25.170424750917803,12.585212375458902,-37.755637126376705,-100.68169900367121,37.755637126376705,12.585212375458902,-0.0,50.340849501835606,-100.68169900367121,-0.0,-25.170424750917803,-0.0
25.170424750917803,12.585212375458902,-50.340849501835606,-113.26691137913011,50.340849501835606,25.170424750917803,-12.585212375458902,62.92606187729451,-113.26691137913011,-0.0,-25.170424750917803,-0.0
25.170424750917803,25.170424750917803,-88.09648662821232,-113.26691137913011,50.340849501835606,37.755637126376705,-12.585212375458902,75.51127425275341,-113.26691137913011,-0.0,-25.170424750917803,-0.0
25.170424750917803,12.585212375458902,-151.02254850550682,-125.85212375458902,37.755637126376705,37.755637126376705,-12.585212375458902,75.51127425275341,-125.85212375458902,-0.0,-25.170424750917803,-12.585212375458902
12.585212375458902,12.585212375458902,-239.11903513371914,-125.85212375458902,37.755637126376705,37.755637126376705,-12.585212375458902,75.51127425275341,-125.85212375458902,-12.585212375458902,-25.170424750917803,-12.585212375458902
12.585212375458902,-12.585212375458902,-302.04509701101364,-113.26691137913011,37.755637126376705,37.755637126376705,-12.585212375458902,75.51127425275341,-125.85212375458902,-12.585212375458902,-25.170424750917803,-12.585212375458902
12.585212375458902,-50.340849501835606,-364.97115888830814,-88.09648662821232,25.170424750917803,50.340849501835606,-12.585212375458902,75.51127425275341,-125.85212375458902,-12.585212375458902,-25.170424750917803,-37.755637126376705
12.585212375458902,-113.26691137913011,-364.97115888830814,-75.51127425275341,25.170424750917803,62.92606187729451,-12.585212375458902,75.51127425275341,-125.85212375458902,-12.585212375458902,-100.68169900367121,-100.68169900367121
12.585212375458902,-226.53382275826021,-302.04509701101364,-75.51127425275341,37.755637126376705,62.92606187729451,-12.585212375458902,88.09648662821232,-138.43733613004792,-12.585212375458902,-239.11903513371914,-226.53382275826021
12.585212375458902,-352.3859465128493,-213.94861038280132,-75.51127425275341,37.755637126376705,37.755637126376705,-0.0,88.09648662821232,-138.43733613004792,-12.585212375458902,-364.97115888830814,-314.63030938647256
12.585212375458902,-465.65285789197935,-125.85212375458902,-62.92606187729451,37.755637126376705,25.170424750917803,25.170424750917803,88.09648662821232,-151.02254850550682,12.585212375458902,-440.48243314106156,-327.2155217619314
-0.0,-591.5049816465684,-113.26691137913011,-50.340849501835606,37.755637126376705,25.170424750917803,75.51127425275341,100.68169900367121,-151.02254850550682,37.755637126376705,-440.48243314106156,-264.2894598846369
-0.0,-704.7718930256985,-163.6077608809657,-37.755637126376705,25.170424750917803,12.585212375458902,176.19297325642464,100.68169900367121,-151.02254850550682,37.755637126376705,-364.97115888830814,-88.09648662821232
-12.585212375458902,-780.2831672784519,-213.94861038280132,-25.170424750917803,12.585212375458902,12.585212375458902,302.04509701101364,100.68169900367121,-151.02254850550682,-0.0,-201.36339800734243,176.19297325642464
-12.585212375458902,-830.6240167802875,-239.11903513371914,-12.585212375458902,12.585212375458902,-0.0,402.72679601468485,88.09648662821232,-151.02254850550682,-62.92606187729451,25.170424750917803,440.48243314106156
-12.585212375458902,-816.1026178855271,-314.63030938647256,-0.0,-0.0,-0.0,541.1641321447328,75.51127425275341,-163.6077608809657,-138.43733613004792,327.2155217619314,679.6014682747807
-12.585212375458902,-801.5812189907668,-427.89722076560264,-0.0,-0.0,-12.585212375458902,629.2606187729451,62.92606187729451,-176.19297325642464,-213.94861038280132,667.0162558993218,893.550078657582
-12.585212375458902,-787.0598200960068,-578.9197692711094,12.585212375458902,-0.0,-12.585212375458902,623.6671910505189,37.755637126376705,-188.77818563188353,-314.63030938647256,969.0613529103355,1044.5726271630888
-12.585212375458902,-772.5384212012465,-767.697954902993,25.170424750917803,-0.0,-25.170424750917803,618.0737633280928,25.170424750917803,-201.36339800734243,-402.72679601468485,1082.3282642894656,1031.9874147876299
-12.585212375458902,-758.0170223064861,-943.8909281594176,25.170424750917803,-0.0,-25.170424750917803,612.4803356056665,-0.0,-213.94861038280132,-390.1415836392259,994.2317776612532,893.550078657582
-0.0,-743.4956234117258,-906.1352910330409,25.170424750917803,-0.0,-37.755637126376705,606.8869078832404,-12.585212375458902,-226.53382275826021,-188.77818563188353,880.9648662821231,717.3571054011574
-0.0,-728.9742245169657,-667.0162558993218,25.170424750917803,-0.0,-37.755637126376705,601.2934801608142,-37.755637126376705,-226.53382275826021,163.6077608809657,717.3571054011574,553.7493445201917
-0.0,-714.4528256222054,-339.80073413739035,25.170424750917803,-0.0,-37.755637126376705,595.7000524383881,-62.92606187729451,-226.53382275826021,515.9937073938149,515.9937073938149,390.1415836392259
-0.0,-699.931426727445,-113.26691137913011,37.755637126376705,-0.0,-25.170424750917803,590.1066247159617,-88.09648662821232,-239.11903513371914,704.7718930256985,2680.650235972746,239.11903513371914
-0.0,-685.4100278326847,-50.340849501835606,37.755637126376705,-12.585212375458902,-25.170424750917803,584.5131969935356,-100.68169900367121,-251.70424750917803,729.9423177766163,2605.1389617199925,125.85212375458902
-0.0,-670.8886289379246,-62.92606187729451,75.51127425275341,-25.170424750917803,-37.755637126376705,578.9197692711094,-100.68169900367121,-251.70424750917803,692.1866806502396,2529.6276874672394,50.340849501835606
-0.0,-656.3672300431643,-88.09648662821232,151.02254850550682,-12.585212375458902,-37.755637126376705,339.80073413739035,-88.09648662821232,-251.70424750917803,566.3345568956506,2466.701625589945,-0.0
-0.0,-641.8458311484039,-88.09648662821232,176.19297325642464,-0.0,-37.755637126376705,100.68169900367121,-75.51127425275341,-251.70424750917803,390.1415836392259,2454.116413214486,-12.585212375458902
-12.585212375458902,-490.82328264289714,-88.09648662821232,138.43733613004792,-0.0,-62.92606187729451,25.170424750917803,-62.92606187729451,-251.70424750917803,251.70424750917803,2454.116413214486,-12.585212375458902
-37.755637126376705,-490.82328264289714,-88.09648662821232,-12.585212375458902,-0.0,-138.43733613004792,12.585212375458902,-37.755637126376705,-239.11903513371914,163.6077608809657,2454.116413214486,-25.170424750917803
-62.92606187729451,-515.9937073938149,-62.92606187729451,-302.04509701101364,-0.0,-188.77818563188353,176.19297325642464,-12.585212375458902,-213.94861038280132,88.09648662821232,2454.116413214486,-25.170424750917803
-100.68169900367121,-490.82328264289714,-12.585212375458902,-667.0162558993218,62.92606187729451,-138.43733613004792,490.82328264289714,-0.0,-188.77818563188353,25.170424750917803,2454.116413214486,-25.170424750917803
-151.02254850550682,-377.55637126376706,12.585212375458902,-994.2317776612532,188.77818563188353,-0.0,492.92081803880694,-0.0,-163.6077608809657,12.585212375458902,2454.116413214486,-12.585212375458902
-188.77818563188353,-226.53382275826021,25.170424750917803,-1183.0099632931367,239.11903513371914,264.2894598846369,495.0183534347168,12.585212375458902,-138.43733613004792,12.585212375458902,2454.116413214486,-12.585212375458902
-264.2894598846369,-100.68169900367121,25.170424750917803,-1220.7656004195135,125.85212375458902,566.3345568956506,497.1158888306266,25.170424750917803,-113.26691137913011,12.585212375458902,2466.701625589945,-12.585212375458902
-377.55637126376706,12.585212375458902,37.755637126376705,-1183.0099632931367,-25.170424750917803,792.8683796539108,499.2134242265364,37.755637126376705,-75.51127425275341,12.585212375458902,2466.701625589945,-12.585212375458902
-515.9937073938149,100.68169900367121,50.340849501835606,-1082.3282642894656,-125.85212375458902,943.8909281594176,501.31095962244626,37.755637126376705,-62.92606187729451,12.585212375458902,2466.701625589945,-12.585212375458902
-667.0162558993218,176.19297325642464,50.340849501835606,-880.9648662821231,-138.43733613004792,1082.3282642894656,503.40849501835606,37.755637126376705,-37.755637126376705,12.585212375458902,2466.701625589945,-12.585212375458902
-830.6240167802875,213.94861038280132,62.92606187729451,-641.8458311484039,-88.09648662821232,1208.1803880440546,239.11903513371914,37.755637126376705,-25.170424750917803,12.585212375458902,2466.701625589945,-12.585212375458902
-969.0613529103355,226.53382275826021,62.92606187729451,-415.3120083901438,-25.170424750917803,1195.5951756685956,75.51127425275341,37.755637126376705,-12.585212375458902,25.170424750917803,2479.2868379654037,-12.585212375458902
-1019.402202412171,239.11903513371914,75.51127425275341,-251.70424750917803,-0.0,1019.402202412171,-12.585212375458902,37.755637126376705,-0.0,25.170424750917803,2479.2868379654037,-12.585212375458902
-956.4761405348765,251.70424750917803,75.51127425275341,-113.26691137913011,-0.0,717.3571054011574,-75.51127425275341,50.340849501835606,-0.0,25.170424750917803,2479.2868379654037,-12.585212375458902
-956.4761405348765,264.2894598846369,88.09648662821232,-25.170424750917803,-0.0,427.89722076560264,-100.68169900367121,50.340849501835606,-0.0,25.170424750917803,2491.8720503408626,-0.0
-969.0613529103355,276.87467226009585,100.68169900367121,25.170424750917803,-0.0,226.53382275826021,-125.85212375458902,50.340849501835606,12.585212375458902,25.170424750917803,2491.8720503408626,-0.0
-918.7205034084998,289.4598846355547,100.68169900367121,62.92606187729451,-0.0,88.09648662821232,-138.43733613004792,50.340849501835606,12.585212375458902,37.755637126376705,2491.8720503408626,-0.0
-767.697954902993,302.04509701101364,100.68169900367121,75.51127425275341,-12.585212375458902,12.585212375458902,-151.02254850550682,50.340849501835606,12.585212375458902,37.755637126376705,2491.8720503408626,-0.0
-616.6754063974862,314.63030938647256,113.26691137913011,88.09648662821232,-12.585212375458902,-37.755637126376705,-163.6077608809657,50.340849501835606,12.585212375458902,37.755637126376705,2491.8720503408626,-12.585212375458902
-490.82328264289714,327.2155217619314,125.85212375458902,75.51127425275341,-12.585212375458902,-62.92606187729451,-176.19297325642464,50.340849501835606,12.585212375458902,50.340849501835606,2491.8720503408626,-12.585212375458902
-390.1415836392259,339.80073413739035,138.43733613004792,75.51127425275341,-0.0,-75.51127425275341,-188.77818563188353,50.340849501835606,25.170424750917803,50.340849501835606,2491.8720503408626,-12.585212375458902
-314.63030938647256,352.3859465128493,151.02254850550682,88.09648662821232,-12.585212375458902,-88.09648662821232,-201.36339800734243,50.340849501835606,25.170424750917803,50.340849501835606,2479.2868379654037,-12.585212375458902
-339.80073413739035,377.55637126376706,151.02254850550682,88.09648662821232,-12.585212375458902,-88.09648662821232,-213.94861038280132,50.340849501835606,25.170424750917803,50.340849501835606,2479.2868379654037,-12.585212375458902
-415.3120083901438,390.1415836392259,163.6077608809657,75.51127425275341,-0.0,-88.09648662821232,-213.94861038280132,50.340849501835606,25.170424750917803,50.340849501835606,2479.2868379654037,-25.170424750917803
-478.2380702674383,415.3120083901438,176.19297325642464,75.51127425275341,-0.0,-88.09648662821232,-213.94861038280132,50.340849501835606,25.170424750917803,50.340849501835606,2466.701625589945,-25.170424750917803
-490.82328264289714,440.48243314106156,188.77818563188353,75.51127425275341,-0.0,-88.09648662821232,-226.53382275826021,50.340849501835606,25.170424750917803,50.340849501835606,2466.701625589945,-25.170424750917803
-440.48243314106156,465.65285789197935,213.94861038280132,75.51127425275341,-0.0,-88.09648662821232,-239.11903513371914,37.755637126376705,25.170424750917803,37.755637126376705,2454.116413214486,-37.755637126376705
-327.2155217619314,490.82328264289714,226.53382275826021,75.51127425275341,-0.0,-88.09648662821232,-251.70424750917803,37.755637126376705,25.170424750917803,37.755637126376705,2454.116413214486,-37.755637126376705
-163.6077608809657,515.9937073938149,239.11903513371914,62.92606187729451,-0.0,-75.51127425275341,-264.2894598846369,37.755637126376705,25.170424750917803,37.755637126376705,2454.116413214486,-37.755637126376705
-37.755637126376705,553.7493445201917,264.2894598846369,62.92606187729451,-0.0,-88.09648662821232,-276.87467226009585,25.170424750917803,25.170424750917803,25.170424750917803,2441.531200839027,-50.340849501835606
37.755637126376705,578.9197692711094,289.4598846355547,62.92606187729451,-0.0,-88.09648662821232,-289.4598846355547,25.170424750917803,25.170424750917803,25.170424750917803,2428.945988463568,-62.92606187729451
75.51127425275341,629.2606187729451,314.63030938647256,62.92606187729451,-0.0,-88.09648662821232,-302.04509701101364,25.170424750917803,12.585212375458902,12.585212375458902,2416.360776088109,-75.51127425275341
113.26691137913011,667.0162558993218,339.80073413739035,75.51127425275341,-0.0,-75.51127425275341,-327.2155217619314,12.585212375458902,12.585212375458902,12.585212375458902,2403.77556371265,-75.51127425275341
138.43733613004792,717.3571054011574,377.55637126376706,75.51127425275341,-0.0,-75.51127425275341,-352.3859465128493,12.585212375458902,12.585212375458902,12.585212375458902,2391.1903513371913,-88.09648662821232
138.43733613004792,780.2831672784519,402.72679601468485,75.51127425275341,-0.0,-75.51127425275341,-364.97115888830814,12.585212375458902,12.585212375458902,-0.0,2378.6051389617323,-88.09648662821232
151.02254850550682,830.6240167802875,427.89722076560264,75.51127425275341,-0.0,-75.51127425275341,-390.1415836392259,12.585212375458902,12.585212375458902,-12.585212375458902,2366.0199265862734,-88.09648662821232
163.6077608809657,880.9648662821231,453.06764551652043,75.51127425275341,-0.0,-88.09648662821232,-415.3120083901438,12.585212375458902,12.585212375458902,-25.170424750917803,2353.4347142108145,-100.68169900367121
163.6077608809657,931.3057157839587,478.2380702674383,75.51127425275341,-0.0,-88.09648662821232,-440.48243314106156,12.585212375458902,-0.0,-37.755637126376705,2353.4347142108145,-100.68169900367121
163.6077608809657,994.2317776612532,503.40849501835606,75.51127425275341,-0.0,-88.09648662821232,-478.2380702674383,12.585212375458902,-0.0,-50.340849501835606,2340.8495018353556,-100.68169900367121
176.19297325642464,1044.5726271630888,528.5789197692739,75.51127425275341,-0.0,-88.09648662821232,-503.40849501835606,12.585212375458902,-0.0,-62.92606187729451,2340.8495018353556,-100.68169900367121
176.19297325642464,1082.3282642894656,541.1641321447328,75.51127425275341,-0.0,-88.09648662821232,-541.1641321447328,12.585212375458902,-0.0,-75.51127425275341,2340.8495018353556,-100.68169900367121
176.19297325642464,1120.0839014158423,553.7493445201917,88.09648662821232,-0.0,-88.09648662821232,-578.9197692711094,-0.0,-0.0,-88.09648662821232,2340.8495018353556,-100.68169900367121
188.77818563188353,1157.8395385422189,566.3345568956506,88.09648662821232,-0.0,-100.68169900367121,-604.0901940220273,-0.0,-0.0,-88.09648662821232,2340.8495018353556,-100.68169900367121
201.36339800734243,1183.0099632931367,553.7493445201917,88.09648662821232,-0.0,-100.68169900367121,-641.8458311484039,-0.0,-0.0,-100.68169900367121,2353.4347142108145,-88.09648662821232
213.94861038280132,1195.5951756685956,541.1641321447328,88.09648662821232,-0.0,-100.68169900367121,-679.6014682747807,-0.0,-0.0,-100.68169900367121,2353.4347142108145,-75.51127425275341
226.53382275826021,1208.1803880440546,503.40849501835606,100.68169900367121,-0.0,-100.68169900367121,-704.7718930256985,-0.0,-0.0,-100.68169900367121,2366.0199265862734,-62.92606187729451
226.53382275826021,1195.5951756685956,453.06764551652043,113.26691137913011,-0.0,-113.26691137913011,-729.9423177766163,-0.0,-0.0,-100.68169900367121,2378.6051389617323,-62.92606187729451
239.11903513371914,1170.4247509176778,402.72679601468485,113.26691137913011,-0.0,-113.26691137913011,-755.1127425275341,-0.0,-0.0,-100.68169900367121,2378.6051389617323,-50.340849501835606
251.70424750917803,1132.6691137913012,352.3859465128493,125.85212375458902,-0.0,-125.85212375458902,-780.2831672784519,-0.0,-0.0,-88.09648662821232,2391.1903513371913,-37.755637126376705
276.87467226009585,1069.7430519140066,302.04509701101364,125.85212375458902,-0.0,-125.85212375458902,-780.2831672784519,-0.0,-0.0,-88.09648662821232,2403.77556371265,-25.170424750917803
289.4598846355547,994.2317776612532,239.11903513371914,138.43733613004792,-0.0,-125.85212375458902,-780.2831672784519,-0.0,-0.0,-75.51127425275341,2416.360776088109,-12.585212375458902
314.63030938647256,906.1352910330409,188.77818563188353,151.02254850550682,-0.0,-125.85212375458902,-780.2831672784519,-0.0,-0.0,-62.92606187729451,2428.945988463568,-0.0
327.2155217619314,805.4535920293697,138.43733613004792,151.02254850550682,-0.0,-138.43733613004792,-767.697954902993,-0.0,-0.0,-62.92606187729451,2428.945988463568,12.585212375458902
352.3859465128493,692.1866806502396,100.68169900367121,151.02254850550682,-0.0,-151.02254850550682,-742.5275301520752,-0.0,-0.0,-50.340849501835606,2441.531200839027,12.585212375458902
364.97115888830814,591.5049816465684,75.51127425275341,163.6077608809657,-12.585212375458902,-163.6077608809657,-704.7718930256985,-0.0,-0.0,-37.755637126376705,2441.531200839027,12.585212375458902
390.1415836392259,490.82328264289714,37.755637126376705,176.19297325642464,-12.585212375458902,-163.6077608809657,-654.4310435238629,-0.0,-0.0,-25.170424750917803,2454.116413214486,25.170424750917803
415.3120083901438,402.72679601468485,12.585212375458902,176.19297325642464,-12.585212375458902,-176.19297325642464,-591.5049816465684,-0.0,-0.0,-12.585212375458902,2454.116413214486,25.170424750917803
453.06764551652043,314.63030938647256,-0.0,163.6077608809657,-12.585212375458902,-176.19297325642464,-503.40849501835606,-0.0,-0.0,-12.585212375458902,2454.116413214486,25.170424750917803
478.2380702674383,251.70424750917803,-0.0,151.02254850550682,-0.0,-163.6077608809657,-440.48243314106156,-0.0,-0.0,-0.0,2466.701625589945,25.170424750917803
515.9937073938149,188.77818563188353,-0.0,138.43733613004792,-0.0,-176.19297325642464,-364.97115888830814,-0.0,-0.0,-0.0,2466.701625589945,25.170424750917803
541.1641321447328,138.43733613004792,-12.585212375458902,125.85212375458902,-0.0,-163.6077608809657,-289.4598846355547,-0.0,-0.0,12.585212375458902,2466.701625589945,25.170424750917803
566.3345568956506,100.68169900367121,-25.170424750917803,113.26691137913011,-0.0,-163.6077608809657,-226.53382275826021,-0.0,-0.0,12.585212375458902,2466.701625589945,25.170424750917803
591.5049816465684,75.51127425275341,-25.170424750917803,100.68169900367121,-0.0,-151.02254850550682,-188.77818563188353,-0.0,-0.0,12.585212375458902,2466.701625589945,25.170424750917803
604.0901940220273,50.340849501835606,-25.170424750917803,75.51127425275341,-0.0,-138.43733613004792,-125.85212375458902,-0.0,-0.0,25.170424750917803,2466.701625589945,25.170424750917803
629.2606187729451,37.755637126376705,-37.755637126376705,62.92606187729451,-0.0,-125.85212375458902,-88.09648662821232,-0.0,-12.585212375458902,25.170424750917803,2466.701625589945,25.170424750917803
641.8458311484039,25.170424750917803,-37.755637126376705,37.755637126376705,-0.0,-113.26691137913011,-62.92606187729451,-0.0,-12.585212375458902,25.170424750917803,2466.701625589945,25.170424750917803
641.8458311484039,12.585212375458902,-37.755637126376705,25.170424750917803,-0.0,-88.09648662821232,-25.170424750917803,-0.0,-12.585212375458902,25.170424750917803,2466.701625589945,25.170424750917803
629.2606187729451,12.585212375458902,-37.755637126376705,12.585212375458902,-0.0,-62.92606187729451,-12.585212375458902,-0.0,-12.585212375458902,25.170424750917803,2466.701625589945,25.170424750917803
616.6754063974862,12.585212375458902,-25.170424750917803,-0.0,-0.0,-50.340849501835606,-12.585212375458902,-0.0,-12.585212375458902,25.170424750917803,2466.701625589945,25.170424750917803
591.5049816465684,-0.0,-25.170424750917803,-12.585212375458902,-0.0,-50.340849501835606,-0.0,-0.0,-12.585212375458902,25.170424750917803,2454.116413214486,25.170424750917803
566.3345568956506,-0.0,-37.755637126376705,-12.585212375458902,-0.0,-37.755637126376705,-0.0,-0.0,-12.585212375458902,25.170424750917803,2454.116413214486,25.170424750917803
528.5789197692739,-0.0,-37.755637126376705,-12.585212375458902,-0.0,-25.170424750917803,-0.0,-0.0,-0.0,25.170424750917803,2454.116413214486,25.170424750917803
478.2380702674383,-0.0,-37.755637126376705,-12.585212375458902,12.585212375458902,-12.585212375458902,-0.0,-0.0,-0.0,25.170424750917803,2454.116413214486,25.170424750917803
440.48243314106156,12.585212375458902,-37.755637126376705,-25.170424750917803,12.585212375458902,-12.585212375458902,12.585212375458902,-0.0,-0.0,25.170424750917803,2454.116413214486,25.170424750917803
390.1415836392259,12.585212375458902,-37.755637126376705,-25.170424750917803,12.585212375458902,-0.0,12.585212375458902,-0.0,-0.0,12.585212375458902,2454.116413214486,12.585212375458902
339.80073413739035,12.585212375458902,-37.755637126376705,-25.170424750917803,12.585212375458902,-0.0,12.585212375458902,-0.0,-0.0,12.585212375458902,2441.531200839027,12.585212375458902
276.87467226009585,-0.0,-37.755637126376705,-25.170424750917803,12.585212375458902,-0.0,12.585212375458902,-0.0,-0.0,12.585212375458902,2441.531200839027,12.585212375458902
239.11903513371914,-0.0,-37.755637126376705,-25.170424750917803,12.585212375458902,-0.0,12.585212375458902,-0.0,-0.0,12.585212375458902,2441.531200839027,12.585212375458902
201.36339800734243,-0.0,-37.755637126376705,-25.170424750917803,12.585212375458902,-0.0,12.585212375458902,-0.0,-0.0,12.585212375458902,2441.531200839027,12.585212375458902
163.6077608809657,-0.0,-37.755637126376705,-25.170424750917803,12.585212375458902,-0.0,12.585212375458902,-0.0,-0.0,12.585212375458902,2441.531200839027,-0.0
113.26691137913011,-0.0,-50.340849501835606,-25.170424750917803,12.585212375458902,-0.0,12.585212375458902,-0.0,-0.0,-0.0,2441.531200839027,-0.0
88.09648662821232,-0.0,-50.340849501835606,-12.585212375458902,12.585212375458902,-0.0,12.585212375458902,-0.0,-0.0,-0.0,2441.531200839027,-0.0
50.340849501835606,-0.0,-37.755637126376705,-12.585212375458902,12.585212375458902,-0.0,12.585212375458902,-0.0,-0.0,-0.0,2441.531200839027,12.585212375458902
37.755637126376705,-0.0,-37.755637126376705,-12.585212375458902,12.585212375458902,-0.0,12.585212375458902,-0.0,-0.0,-0.0,2441.531200839027,-0.0
25.170424750917803,-0.0,-37.755637126376705,-12.585212375458902,-0.0,-0.0,12.585212375458902,-0.0,-0.0,-0.0,2441.531200839027,-0.0
25.170424750917803,-12.585212375458902,-50.340849501835606,-25.170424750917803,12.585212375458902,-0.0,12.585212375458902,-0.0,-0.0,-0.0,2441.531200839027,-0.0
12.585212375458902,-12.585212375458902,-50.340849501835606,-25.170424750917803,12.585212375458902,-0.0,12.585212375458902,-0.0,-0.0,-0.0,2441.531200839027,-0.0
12.585212375458902,-12.585212375458902,-50.340849501835606,-25.170424750917803,12.585212375458902,-0.0,12.585212375458902,-0.0,-0.0,-0.0,2441.531200839027,-0.0
-0.0,-12.585212375458902,-37.755637126376705,-12.585212375458902,12.585212375458902,-0.0,12.585212375458902,-0.0,-0.0,-0.0,2441.531200839027,-0.0
-0.0,-12.585212375458902,-37.755637126376705,-12.585212375458902,12.585212375458902,-0.0,12.585212375458902,-0.0,-0.0,-0.0,2441.531200839027,-0.0
-0.0,-12.585212375458902,-50.340849501835606,-12.585212375458902,-0.0,-0.0,12.585212375458902,-0.0,-12.585212375458902,-0.0,2441.531200839027,-0.0
12.585212375458902,-12.585212375458902,-62.92606187729451,-12.585212375458902,-0.0,-0.0,12.585212375458902,-0.0,-12.585212375458902,-0.0,2441.531200839027,-0.0
-0.0,-12.585212375458902,-62.92606187729451,-12.585212375458902,-0.0,-12.585212375458902,12.585212375458902,-0.0,-12.585212375458902,-0.0,2441.531200839027,-0.0
-0.0,-12.585212375458902,-62.92606187729451,-12.585212375458902,-0.0,-12.585212375458902,12.585212375458902,-0.0,-12.585212375458902,-0.0,2441.531200839027,-0.0
-0.0,-12.585212375458902,-62.92606187729451,-0.0,-0.0,-12.585212375458902,12.585212375458902,-0.0,-12.585212375458902,-0.0,2428.945988463568,-0.0
-0.0,-25.170424750917803,-62.92606187729451,12.585212375458902,-0.0,-12.585212375458902,12.585212375458902,-0.0,-12.585212375458902,-0.0,2416.360776088109,-12.585212375458902
-0.0,-37.755637126376705,-62.92606187729451,25.170424750917803,-0.0,-25.170424750917803,12.585212375458902,-0.0,-12.585212375458902,-0.0,2391.1903513371913,-37.755637126376705
-0.0,-37.755637126376705,-62.92606187729451,25.170424750917803,-0.0,-25.170424750917803,12.585212375458902,-0.0,-12.585212375458902,-0.0,2353.4347142108145,-75.51127425275341
-0.0,-37.755637126376705,-62.92606187729451,25.170424750917803,-0.0,-37.755637126376705,12.585212375458902,-0.0,-12.585212375458902,-0.0,2290.50865233352,-138.43733613004792
-0.0,-37.755637126376705,-62.92606187729451,25.170424750917803,-0.0,-37.755637126376705,12.585212375458902,-0.0,-12.585212375458902,-12.585212375458902,2202.412165705308,-226.53382275826021
-0.0,-37.755637126376705,-62.92606187729451,25.170424750917803,-0.0,-37.755637126376705,12.585212375458902,-0.0,-12.585212375458902,-25.170424750917803,2114.3156790770954,-314.63030938647256
12.585212375458902,-37.755637126376705,-62.92606187729451,25.170424750917803,-0.0,-37.755637126376705,12.585212375458902,-0.0,-12.585212375458902,-50.340849501835606,2013.6339800734243,-415.3120083901438
-0.0,-37.755637126376705,-62.92606187729451,25.170424750917803,-0.0,-37.755637126376705,12.585212375458902,-0.0,-12.585212375458902,-88.09648662821232,1887.7818563188353,-528.5789197692739
-0.0,-37.755637126376705,-50.340849501835606,25.170424750917803,12.585212375458902,-37.755637126376705,12.585212375458902,-0.0,-12.585212375458902,-151.02254850550682,1787.100157315164,-641.8458311484039
-0.0,-37.755637126376705,-62.92606187729451,25.170424750917803,12.585212375458902,-50.340849501835606,12.585212375458902,-0.0,-12.585212375458902,-239.11903513371914,1661.248033560575,1371.7881489250203
-0.0,-37.755637126376705,-50.340849501835606,25.170424750917803,12.585212375458902,-50.340849501835606,12.585212375458902,-0.0,-12.585212375458902,-327.2155217619314,1384.3733613004792,1094.9134766649245
-0.0,-37.755637126376705,-50.340849501835606,25.170424750917803,12.585212375458902,-50.340849501835606,12.585212375458902,-0.0,-12.585212375458902,-427.89722076560264,868.3796539066642,654.4310435238629
-0.0,-37.755637126376705,-62.92606187729451,25.170424750917803,-0.0,-50.340849501835606,12.585212375458902,-0.0,-12.585212375458902,-553.7493445201917,339.80073413739035,239.11903513371914
-0.0,-37.755637126376705,-62.92606187729451,25.170424750917803,-0.0,-50.340849501835606,12.585212375458902,-0.0,-12.585212375458902,-654.4310435238629,-25.170424750917803,-0.0
-0.0,-37.755637126376705,-62.92606187729451,25.170424750917803,-0.0,-50.340849501835606,12.585212375458902,-0.0,-12.585212375458902,-780.2831672784519,-239.11903513371914,-113.26691137913011
-0.0,-37.755637126376705,-62.92606187729451,12.585212375458902,12.585212375458902,-50.340849501835606,12.585212375458902,-0.0,-12.585212375458902,-1057.1578395385477,-427.89722076560264,-251.70424750917803
-0.0,-37.755637126376705,-62.92606187729451,12.585212375458902,12.585212375458902,-50.340849501835606,12.585212375458902,-0.0,-12.585212375458902,-1573.1515469323626,-616.6754063974862,-377.55637126376706
-0.0,-37.755637126376705,-62.92606187729451,12.585212375458902,-0.0,-50.340849501835606,12.585212375458902,-0.0,-12.585212375458902,-2101.7304667016365,-717.3571054011574,-390.1415836392259
-0.0,-37.755637126376705,-62.92606187729451,25.170424750917803,-0.0,-50.340849501835606,12.585212375458902,-0.0,-12.585212375458902,-2091.941968187391,-679.6014682747807,-276.87467226009585
-0.0,-37.755637126376705,-62.92606187729451,37.755637126376705,-0.0,-37.755637126376705,12.585212375458902,-0.0,-0.0,-2082.153469673145,-503.40849501835606,-75.51127425275341
-0.0,-37.755637126376705,-62.92606187729451,62.92606187729451,-0.0,-37.755637126376705,12.585212375458902,-0.0,-0.0,-2072.364971158899,-138.43733613004792,251.70424750917803
-12.585212375458902,-37.755637126376705,-62.92606187729451,113.26691137913011,-0.0,-50.340849501835606,12.585212375458902,-0.0,-0.0,-2062.5764726446537,427.89722076560264,742.5275301520752
-12.585212375458902,-37.755637126376705,-62.92606187729451,201.36339800734243,-0.0,-62.92606187729451,12.585212375458902,-0.0,-0.0,-2052.7879741304073,1120.0839014158423,-578.9197692711094
-12.585212375458902,-37.755637126376705,-62.92606187729451,276.87467226009585,-0.0,-88.09648662821232,12.585212375458902,-0.0,-0.0,-2042.9994756161614,1724.1740954378695,-402.72679601468485
-12.585212375458902,-37.755637126376705,-62.92606187729451,377.55637126376706,12.585212375458902,-138.43733613004792,12.585212375458902,12.585212375458902,-0.0,-2033.2109771019157,-402.72679601468485,-302.04509701101364
-12.585212375458902,-37.755637126376705,-62.92606187729451,478.2380702674383,-12.585212375458902,-213.94861038280132,12.585212375458902,12.585212375458902,-0.0,-2023.42247858767,-289.4598846355547,-251.70424750917803
-12.585212375458902,-37.755637126376705,-62.92606187729451,578.9197692711094,-88.09648662821232,-302.04509701101364,12.585212375458902,25.170424750917803,-0.0,-2013.6339800734243,-226.53382275826021,-226.53382275826021
-12.585212375458902,-37.755637126376705,-62.92606187729451,679.6014682747807,-213.94861038280132,-402.72679601468485,12.585212375458902,37.755637126376705,-0.0,-1321.4472994231846,-151.02254850550682,-163.6077608809657
-12.585212375458902,-37.755637126376705,-62.92606187729451,780.2831672784519,-364.97115888830814,-478.2380702674383,12.585212375458902,50.340849501835606,12.585212375458902,-717.3571054011574,-37.755637126376705,-75.51127425275341
-12.585212375458902,-37.755637126376705,-62.92606187729451,918.7205034084998,-503.40849501835606,-503.40849501835606,12.585212375458902,62.92606187729451,12.585212375458902,-352.3859465128493,88.09648662821232,12.585212375458902
-12.585212375458902,-25.170424750917803,-62.92606187729451,1057.1578395385477,-566.3345568956506,-478.2380702674383,12.585212375458902,75.51127425275341,12.585212375458902,-201.36339800734243,176.19297325642464,88.09648662821232
-12.585212375458902,-25.170424750917803,-62.92606187729451,1120.0839014158423,-553.7493445201917,-440.48243314106156,12.585212375458902,75.51127425275341,12.585212375458902,-163.6077608809657,264.2894598846369,138.43733613004792
-12.585212375458902,-25.170424750917803,-62.92606187729451,1094.9134766649245,-515.9937073938149,-440.48243314106156,12.585212375458902,75.51127425275341,37.755637126376705,-125.85212375458902,302.04509701101364,176.19297325642464
-12.585212375458902,-37.755637126376705,-62.92606187729451,1094.9134766649245,-503.40849501835606,-515.9937073938149,12.585212375458902,75.51127425275341,50.340849501835606,-37.755637126376705,327.2155217619314,188.77818563188353
-12.585212375458902,-37.755637126376705,-75.51127425275341,1120.0839014158423,-453.06764551652043,-578.9197692711094,12.585212375458902,37.755637126376705,62.92606187729451,75.51127425275341,339.80073413739035,201.36339800734243
-12.585212375458902,-25.170424750917803,-75.51127425275341,1094.9134766649245,-339.80073413739035,-591.5049816465684,12.585212375458902,12.585212375458902,75.51127425275341,176.19297325642464,352.3859465128493,201.36339800734243
-12.585212375458902,-25.170424750917803,-75.51127425275341,1006.8169900367121,-163.6077608809657,-604.0901940220273,-0.0,-0.0,88.09648662821232,264.2894598846369,364.97115888830814,213.94861038280132
-12.585212375458902,-25.170424750917803,-62.92606187729451,918.7205034084998,25.170424750917803,-679.6014682747807,-0.0,-0.0,88.09648662821232,302.04509701101364,377.55637126376706,226.53382275826021
-12.585212375458902,-37.755637126376705,-75.51127425275341,818.0388044048286,151.02254850550682,-780.2831672784519,-0.0,-0.0,62.92606187729451,327.2155217619314,390.1415836392259,239.11903513371914
-12.585212375458902,-37.755637126376705,-75.51127425275341,667.0162558993218,188.77818563188353,-868.3796539066642,-0.0,-12.585212375458902,25.170424750917803,339.80073413739035,390.1415836392259,251.70424750917803
-12.585212375458902,-37.755637126376705,-75.51127425275341,515.9937073938149,100.68169900367121,-956.4761405348765,-0.0,-25.170424750917803,-0.0,339.80073413739035,402.72679601468485,251.70424750917803
-12.585212375458902,-25.170424750917803,-62.92606187729451,440.48243314106156,-62.92606187729451,-994.2317776612532,-0.0,-25.170424750917803,-12.585212375458902,364.97115888830814,415.3120083901438,264.2894598846369
-12.585212375458902,-25.170424750917803,-62.92606187729451,453.06764551652043,-201.36339800734243,-868.3796539066642,-0.0,-25.170424750917803,-12.585212375458902,377.55637126376706,440.48243314106156,276.87467226009585
-12.585212375458902,-25.170424750917803,-62.92606187729451,478.2380702674383,-239.11903513371914,-641.8458311484039,-0.0,-25.170424750917803,-25.170424750917803,390.1415836392259,453.06764551652043,289.4598846355547
-12.585212375458902,-25.170424750917803,-62.92606187729451,478.2380702674383,-213.94861038280132,-402.72679601468485,-0.0,-12.585212375458902,-37.755637126376705,390.1415836392259,465.65285789197935,289.4598846355547
-12.585212375458902,-25.170424750917803,-75.51127425275341,415.3120083901438,-163.6077608809657,-276.87467226009585,-0.0,-12.585212375458902,-37.755637126376705,402.72679601468485,490.82328264289714,302.04509701101364
-12.585212375458902,-25.170424750917803,-88.09648662821232,276.87467226009585,-62.92606187729451,-264.2894598846369,-0.0,-12.585212375458902,-37.755637126376705,415.3120083901438,515.9937073938149,314.63030938647256
-12.585212375458902,-25.170424750917803,-88.09648662821232,138.43733613004792,12.585212375458902,-276.87467226009585,-0.0,-12.585212375458902,-37.755637126376705,427.89722076560264,528.5789197692739,327.2155217619314
-12.585212375458902,-25.170424750917803,-75.51127425275341,12.585212375458902,75.51127425275341,-264.2894598846369,-0.0,-12.585212375458902,-25.170424750917803,440.48243314106156,553.7493445201917,352.3859465128493
-12.585212375458902,-12.585212375458902,-62.92606187729451,-75.51127425275341,88.09648662821232,-226.53382275826021,-0.0,-12.585212375458902,-25.170424750917803,453.06764551652043,578.9197692711094,364.97115888830814
-12.585212375458902,-12.585212375458902,-75.51127425275341,-113.26691137913011,75.51127425275341,-163.6077608809657,-0.0,-12.585212375458902,-25.170424750917803,478.2380702674383,616.6754063974862,377.55637126376706
-12.585212375458902,-12.585212375458902,-88.09648662821232,-138.43733613004792,75.51127425275341,-100.68169900367121,-0.0,-12.585212375458902,-25.170424750917803,503.40849501835606,641.8458311484039,402.72679601468485
-0.0,12.585212375458902,-88.09648662821232,-151.02254850550682,88.09648662821232,-37.755637126376705,-0.0,-0.0,-25.170424750917803,515.9937073938149,679.6014682747807,427.89722076560264
-0.0,25.170424750917803,-62.92606187729451,-163.6077608809657,88.09648662821232,25.170424750917803,12.585212375458902,62.92606187729451,-25.170424750917803,541.1641321447328,717.3571054011574,453.06764551652043
-0.0,50.340849501835606,-50.340849501835606,-176.19297325642464,88.09648662821232,37.755637126376705,25.170424750917803,226.53382275826021,-25.170424750917803,566.3345568956506,767.697954902993,478.2380702674383
-0.0,62.92606187729451,-50.340849501835606,-176.19297325642464,88.09648662821232,50.340849501835606,37.755637126376705,515.9937073938149,-25.170424750917803,604.0901940220273,818.0388044048286,515.9937073938149
-0.0,62.92606187729451,-62.92606187729451,-188.77818563188353,88.09648662821232,50.340849501835606,37.755637126376705,755.1127425275341,-12.585212375458902,629.2606187729451,868.3796539066642,541.1641321447328
-0.0,62.92606187729451,-75.51127425275341,-201.36339800734243,88.09648662821232,62.92606187729451,37.755637126376705,553.7493445201917,50.340849501835606,667.0162558993218,918.7205034084998,578.9197692711094
-0.0,75.51127425275341,-75.51127425275341,-201.36339800734243,88.09648662821232,75.51127425275341,50.340849501835606,163.6077608809657,201.36339800734243,717.3571054011574,969.0613529103355,616.6754063974862
-0.0,88.09648662821232,-88.09648662821232,-201.36339800734243,88.09648662821232,75.51127425275341,50.340849501835606,-377.55637126376706,402.72679601468485,742.5275301520752,1031.9874147876299,654.4310435238629
-0.0,88.09648662821232,-88.09648662821232,-213.94861038280132,88.09648662821232,88.09648662821232,50.340849501835606,-1245.9360251704313,566.3345568956506,792.8683796539108,1082.3282642894656,692.1866806502396
-0.0,62.92606187729451,-100.68169900367121,-226.53382275826021,88.09648662821232,100.68169900367121,37.755637126376705,-2114.3156790770954,553.7493445201917,843.2092291557464,1120.0839014158423,717.3571054011574
-0.0,50.340849501835606,-100.68169900367121,-239.11903513371914,88.09648662821232,113.26691137913011,12.585212375458902,-2529.6276874672394,415.3120083901438,893.550078657582,1170.4247509176778,755.1127425275341
-0.0,50.340849501835606,-100.68169900367121,-251.70424750917803,88.09648662821232,113.26691137913011,-12.585212375458902,-2265.3382275826025,75.51127425275341,931.3057157839587,1208.1803880440546,792.8683796539108
-0.0,37.755637126376705,-100.68169900367121,-264.2894598846369,88.09648662821232,125.85212375458902,-37.755637126376705,-1787.100157315164,-578.9197692711094,981.6465652857943,1233.3508127949724,818.0388044048286
-0.0,25.170424750917803,-100.68169900367121,-276.87467226009585,88.09648662821232,125.85212375458902,-50.340849501835606,-1271.1064499213492,-1308.8620870477257,1031.9874147876299,1258.5212375458902,843.2092291557464
-0.0,12.585212375458902,-100.68169900367121,-289.4598846355547,88.09648662821232,138.43733613004792,-50.340849501835606,-830.6240167802875,-1736.7593078133284,1069.7430519140066,1271.1064499213492,855.7944415312053
-0.0,-0.0,-100.68169900367121,-314.63030938647256,100.68169900367121,151.02254850550682,-50.340849501835606,-490.82328264289714,-1648.6628211851162,1120.0839014158423,1258.5212375458902,855.7944415312053
-0.0,-25.170424750917803,-100.68169900367121,-339.80073413739035,100.68169900367121,163.6077608809657,-62.92606187729451,-239.11903513371914,-1308.8620870477257,1145.25432616676,1245.9360251704313,855.7944415312053
-0.0,-37.755637126376705,-100.68169900367121,-352.3859465128493,113.26691137913011,176.19297325642464,-62.92606187729451,-88.09648662821232,-918.7205034084998,1157.8395385422189,1208.1803880440546,843.2092291557464
-0.0,-50.340849501835606,-100.68169900367121,-377.55637126376706,113.26691137913011,188.77818563188353,-62.92606187729451,-12.585212375458902,-566.3345568956506,1170.4247509176778,1145.25432616676,805.4535920293697
-0.0,-62.92606187729451,-100.68169900367121,-402.72679601468485,113.26691137913011,213.94861038280132,-62.92606187729451,62.92606187729451,-314.63030938647256,1183.0099632931367,1082.3282642894656,767.697954902993
12.585212375458902,-75.51127425275341,-88.09648662821232,-427.89722076560264,113.26691137913011,226.53382275826021,-50.340849501835606,100.68169900367121,-188.77818563188353,1170.4247509176778,1006.8169900367121,729.9423177766163
25.170424750917803,-75.51127425275341,-100.68169900367121,-465.65285789197935,125.85212375458902,251.70424750917803,-37.755637126376705,113.26691137913011,-125.85212375458902,1145.25432616676,931.3057157839587,667.0162558993218
25.170424750917803,-75.51127425275341,-100.68169900367121,-503.40849501835606,138.43733613004792,276.87467226009585,-25.170424750917803,125.85212375458902,-88.09648662821232,1107.4986890403834,830.6240167802875,604.0901940220273
37.755637126376705,-75.51127425275341,-125.85212375458902,-541.1641321447328,138.43733613004792,289.4598846355547,-12.585212375458902,138.43733613004792,-37.755637126376705,1044.5726271630888,729.9423177766163,541.1641321447328
50.340849501835606,-88.09648662821232,-188.77818563188353,-578.9197692711094,151.02254850550682,314.63030938647256,-12.585212375458902,138.43733613004792,-12.585212375458902,981.6465652857943,629.2606187729451,465.65285789197935
62.92606187729451,-88.09648662821232,-239.11903513371914,-616.6754063974862,151.02254850550682,339.80073413739035,-12.585212375458902,151.02254850550682,-0.0,906.1352910330409,528.5789197692739,402.72679601468485
88.09648662821232,-88.09648662821232,-201.36339800734243,-654.4310435238629,163.6077608809657,377.55637126376706,-12.585212375458902,151.02254850550682,12.585212375458902,818.0388044048286,427.89722076560264,339.80073413739035
100.68169900367121,-100.68169900367121,-75.51127425275341,-692.1866806502396,176.19297325642464,402.72679601468485,-12.585212375458902,163.6077608809657,12.585212375458902,717.3571054011574,339.80073413739035,264.2894598846369
100.68169900367121,-151.02254850550682,113.26691137913011,-729.9423177766163,176.19297325642464,440.48243314106156,-12.585212375458902,163.6077608809657,25.170424750917803,629.2606187729451,264.2894598846369,201.36339800734243
113.26691137913011,-251.70424750917803,314.63030938647256,-780.2831672784519,176.19297325642464,478.2380702674383,-12.585212375458902,163.6077608809657,25.170424750917803,528.5789197692739,201.36339800734243,151.02254850550682
113.26691137913011,-314.63030938647256,415.3120083901438,-805.4535920293697,163.6077608809657,515.9937073938149,25.170424750917803,176.19297325642464,37.755637126376705,427.89722076560264,151.02254850550682,113.26691137913011
100.68169900367121,-239.11903513371914,528.5789197692739,-830.6240167802875,163.6077608809657,541.1641321447328,88.09648662821232,176.19297325642464,37.755637126376705,352.3859465128493,100.68169900367121,88.09648662821232
88.09648662821232,-0.0,717.3571054011574,-855.7944415312053,151.02254850550682,578.9197692711094,239.11903513371914,188.77818563188353,37.755637126376705,276.87467226009585,75.51127425275341,62.92606187729451
75.51127425275341,415.3120083901438,880.9648662821231,-868.3796539066642,138.43733613004792,616.6754063974862,453.06764551652043,188.77818563188353,37.755637126376705,226.53382275826021,50.340849501835606,37.755637126376705
88.09648662821232,1145.25432616676,893.550078657582,-868.3796539066642,113.26691137913011,654.4310435238629,541.1641321447328,201.36339800734243,50.340849501835606,163.6077608809657,25.170424750917803,25.170424750917803
88.09648662821232,1308.8620870477257,729.9423177766163,-868.3796539066642,88.09648662821232,679.6014682747807,478.2380702674383,201.36339800734243,50.340849501835606,113.26691137913011,-0.0,25.170424750917803
75.51127425275341,1535.395909805986,478.2380702674383,-843.2092291557464,62.92606187729451,704.7718930256985,352.3859465128493,213.94861038280132,50.340849501835606,88.09648662821232,-0.0,12.585212375458902
62.92606187729451,1610.9071840587394,239.11903513371914,-805.4535920293697,50.340849501835606,729.9423177766163,-176.19297325642464,213.94861038280132,62.92606187729451,62.92606187729451,-0.0,12.585212375458902
50.340849501835606,717.3571054011574,88.09648662821232,-767.697954902993,25.170424750917803,742.5275301520752,-692.1866806502396,226.53382275826021,62.92606187729451,50.340849501835606,-0.0,12.585212375458902
37.755637126376705,1183.0099632931367,-12.585212375458902,-717.3571054011574,12.585212375458902,755.1127425275341,-1208.1803880440546,226.53382275826021,62.92606187729451,37.755637126376705,-0.0,12.585212375458902
25.170424750917803,1359.2029365495614,-75.51127425275341,-654.4310435238629,-0.0,742.5275301520752,-981.6465652857943,226.53382275826021,75.51127425275341,12.585212375458902,-0.0,12.585212375458902
12.585212375458902,880.9648662821231,-113.26691137913011,-591.5049816465684,-0.0,717.3571054011574,-880.9648662821231,226.53382275826021,75.51127425275341,12.585212375458902,-0.0,12.585212375458902
-0.0,528.5789197692739,-125.85212375458902,-515.9937073938149,-0.0,679.6014682747807,-843.2092291557464,239.11903513371914,75.51127425275341,12.585212375458902,-0.0,12.585212375458902
-0.0,289.4598846355547,-125.85212375458902,-440.48243314106156,-0.0,629.2606187729451,-969.0613529103355,239.11903513371914,75.51127425275341,12.585212375458902,-0.0,12.585212375458902
-0.0,100.68169900367121,-113.26691137913011,-352.3859465128493,-0.0,578.9197692711094,-780.2831672784519,251.70424750917803,88.09648662821232,12.585212375458902,-0.0,12.585212375458902
-12.585212375458902,-12.585212375458902,-125.85212375458902,-289.4598846355547,-0.0,503.40849501835606,-591.5049816465684,251.70424750917803,88.09648662821232,12.585212375458902,-0.0,12.585212375458902
-25.170424750917803,-88.09648662821232,-138.43733613004792,-226.53382275826021,-0.0,427.89722076560264,-339.80073413739035,264.2894598846369,88.09648662821232,12.585212375458902,-0.0,12.585212375458902
-25.170424750917803,-125.85212375458902,-138.43733613004792,-163.6077608809657,-0.0,339.80073413739035,-151.02254850550682,264.2894598846369,88.09648662821232,12.585212375458902,-0.0,12.585212375458902
-37.755637126376705,-138.43733613004792,-138.43733613004792,-125.85212375458902,-0.0,289.4598846355547,-37.755637126376705,264.2894598846369,88.09648662821232,12.585212375458902,-0.0,12.585212375458902
-37.755637126376705,-138.43733613004792,-138.43733613004792,-100.68169900367121,-0.0,213.94861038280132,37.755637126376705,264.2894598846369,88.09648662821232,12.585212375458902,-0.0,12.585212375458902
-37.755637126376705,-151.02254850550682,-138.43733613004792,-62.92606187729451,-0.0,151.02254850550682,100.68169900367121,276.87467226009585,100.68169900367121,12.585212375458902,-0.0,12.585212375458902
-62.92606187729451,-151.02254850550682,-138.43733613004792,-37.755637126376705,-0.0,113.26691137913011,125.85212375458902,276.87467226009585,100.68169900367121,12.585212375458902,-0.0,12.585212375458902
-100.68169900367121,-151.02254850550682,-138.43733613004792,-25.170424750917803,-0.0,62.92606187729451,138.43733613004792,276.87467226009585,100.68169900367121,25.170424750917803,-0.0,12.585212375458902
-113.26691137913011,-151.02254850550682,-138.43733613004792,-12.585212375458902,12.585212375458902,25.170424750917803,151.02254850550682,289.4598846355547,100.68169900367121,25.170424750917803,-0.0,12.585212375458902
-62.92606187729451,-151.02254850550682,-138.43733613004792,-12.585212375458902,12.585212375458902,-0.0,163.6077608809657,289.4598846355547,100.68169900367121,25.170424750917803,-0.0,-0.0
50.340849501835606,-163.6077608809657,-151.02254850550682,-0.0,-0.0,-12.585212375458902,163.6077608809657,289.4598846355547,100.68169900367121,25.170424750917803,-0.0,-0.0
251.70424750917803,-151.02254850550682,-151.02254850550682,-0.0,-0.0,-25.170424750917803,163.6077608809657,302.04509701101364,100.68169900367121,12.585212375458902,-0.0,-0.0
553.7493445201917,-151.02254850550682,-138.43733613004792,12.585212375458902,-0.0,-25.170424750917803,163.6077608809657,302.04509701101364,113.26691137913011,12.585212375458902,-0.0,-0.0
-1183.0099632931367,-151.02254850550682,-125.85212375458902,12.585212375458902,-0.0,-25.170424750917803,163.6077608809657,302.04509701101364,113.26691137913011,12.585212375458902,-0.0,-0.0
-956.4761405348765,-151.02254850550682,-138.43733613004792,12.585212375458902,12.585212375458902,-37.755637126376705,163.6077608809657,314.63030938647256,113.26691137913011,12.585212375458902,-12.585212375458902,-0.0
-855.7944415312053,-151.02254850550682,-138.43733613004792,12.585212375458902,12.585212375458902,-37.755637126376705,163.6077608809657,314.63030938647256,125.85212375458902,12.585212375458902,-12.585212375458902,-0.0
-805.4535920293697,-151.02254850550682,-138.43733613004792,25.170424750917803,25.170424750917803,-50.340849501835606,176.19297325642464,314.63030938647256,125.85212375458902,12.585212375458902,-12.585212375458902,-0.0
616.6754063974862,-151.02254850550682,-138.43733613004792,12.585212375458902,25.170424750917803,-50.340849501835606,163.6077608809657,327.2155217619314,125.85212375458902,12.585212375458902,-12.585212375458902,-0.0
478.2380702674383,-151.02254850550682,-138.43733613004792,12.585212375458902,25.170424750917803,-50.340849501835606,176.19297325642464,339.80073413739035,125.85212375458902,12.585212375458902,-25.170424750917803,-12.585212375458902
352.3859465128493,-151.02254850550682,-125.85212375458902,12.585212375458902,12.585212375458902,-50.340849501835606,176.19297325642464,339.80073413739035,138.43733613004792,12.585212375458902,-25.170424750917803,-12.585212375458902
251.70424750917803,-151.02254850550682,-138.43733613004792,12.585212375458902,12.585212375458902,-50.340849501835606,176.19297325642464,339.80073413739035,138.43733613004792,12.585212375458902,-25.170424750917803,-12.585212375458902
138.43733613004792,-138.43733613004792,-138.43733613004792,12.585212375458902,12.585212375458902,-50.340849501835606,176.19297325642464,327.2155217619314,151.02254850550682,12.585212375458902,-25.170424750917803,-12.585212375458902
75.51127425275341,-138.43733613004792,-138.43733613004792,12.585212375458902,25.170424750917803,-50.340849501835606,188.77818563188353,314.63030938647256,163.6077608809657,12.585212375458902,-25.170424750917803,-12.585212375458902
12.585212375458902,-138.43733613004792,-151.02254850550682,12.585212375458902,25.170424750917803,-50.340849501835606,188.77818563188353,302.04509701101364,163.6077608809657,-0.0,-37.755637126376705,-12.585212375458902
-12.585212375458902,-151.02254850550682,-151.02254850550682,12.585212375458902,25.170424750917803,-62.92606187729451,188.77818563188353,276.87467226009585,176.19297325642464,-0.0,-37.755637126376705,-12.585212375458902
-37.755637126376705,-151.02254850550682,-151.02254850550682,25.170424750917803,25.170424750917803,-62.92606187729451,201.36339800734243,239.11903513371914,188.77818563188353,-0.0,-37.755637126376705,-12.585212375458902
-50.340849501835606,-151.02254850550682,-151.02254850550682,25.170424750917803,12.585212375458902,-62.92606187729451,201.36339800734243,213.94861038280132,188.77818563188353,-0.0,-37.755637126376705,-12.585212375458902
-50.340849501835606,-151.02254850550682,-151.02254850550682,25.170424750917803,-0.0,-62.92606187729451,201.36339800734243,188.77818563188353,176.19297325642464,-0.0,-37.755637126376705,-12.585212375458902
-50.340849501835606,-163.6077608809657,-151.02254850550682,25.170424750917803,12.585212375458902,-62.92606187729451,213.94861038280132,151.02254850550682,163.6077608809657,-12.585212375458902,-37.755637126376705,-25.170424750917803
-50.340849501835606,-176.19297325642464,-163.6077608809657,25.170424750917803,25.170424750917803,-62.92606187729451,213.94861038280132,125.85212375458902,151.02254850550682,-12.585212375458902,-37.755637126376705,-25.170424750917803
-50.340849501835606,-176.19297325642464,-163.6077608809657,25.170424750917803,25.170424750917803,-50.340849501835606,213.94861038280132,113.26691137913011,125.85212375458902,-12.585212375458902,-37.755637126376705,-25.170424750917803
-50.340849501835606,-188.77818563188353,-163.6077608809657,25.170424750917803,12.585212375458902,-62.92606187729451,213.94861038280132,88.09648662821232,113.26691137913011,-12.585212375458902,-37.755637126376705,-25.170424750917803
-50.340849501835606,-188.77818563188353,-163.6077608809657,25.170424750917803,12.585212375458902,-62.92606187729451,226.53382275826021,75.51127425275341,88.09648662821232,-12.585212375458902,-37.755637126376705,-12.585212375458902
-50.340849501835606,-201.36339800734243,-151.02254850550682,25.170424750917803,12.585212375458902,-62.92606187729451,226.53382275826021,75.51127425275341,75.51127425275341,-12.585212375458902,-37.755637126376705,-12.585212375458902
-50.340849501835606,-213.94861038280132,-151.02254850550682,25.170424750917803,12.585212375458902,-62.92606187729451,239.11903513371914,62.92606187729451,62.92606187729451,-12.585212375458902,-37.755637126376705,-12.585212375458902
-50.340849501835606,-226.53382275826021,-151.02254850550682,37.755637126376705,12.585212375458902,-50.340849501835606,251.70424750917803,50.340849501835606,50.340849501835606,-12.585212375458902,-37.755637126376705,-25.170424750917803
-50.340849501835606,-239.11903513371914,-151.02254850550682,37.755637126376705,12.585212375458902,-50.340849501835606,251.70424750917803,50.340849501835606,37.755637126376705,-12.585212375458902,-37.755637126376705,-25.170424750917803
-50.340849501835606,-239.11903513371914,-151.02254850550682,37.755637126376705,12.585212375458902,-62.92606187729451,264.2894598846369,50.340849501835606,37.755637126376705,-12.585212375458902,-37.755637126376705,-25.170424750917803
-50.340849501835606,-239.11903513371914,-151.02254850550682,37.755637126376705,12.585212375458902,-62.92606187729451,276.87467226009585,50.340849501835606,37.755637126376705,-25.170424750917803,-37.755637126376705,-12.585212375458902
-50.340849501835606,-239.11903513371914,-151.02254850550682,37.755637126376705,12.585212375458902,-62.92606187729451,289.4598846355547,50.340849501835606,37.755637126376705,-25.170424750917803,-37.755637126376705,-12.585212375458902
-50.340849501835606,-239.11903513371914,-151.02254850550682,37.755637126376705,12.585212375458902,-75.51127425275341,289.4598846355547,50.340849501835606,25.170424750917803,-25.170424750917803,-37.755637126376705,-12.585212375458902
-50.340849501835606,-251.70424750917803,-125.85212375458902,37.755637126376705,12.585212375458902,-75.51127425275341,302.04509701101364,37.755637126376705,25.170424750917803,-25.170424750917803,-37.755637126376705,-12.585212375458902
-50.340849501835606,-251.70424750917803,-113.26691137913011,37.755637126376705,12.585212375458902,-75.51127425275341,314.63030938647256,37.755637126376705,25.170424750917803,-12.585212375458902,-37.755637126376705,-12.585212375458902
-50.340849501835606,-239.11903513371914,-100.68169900367121,37.755637126376705,12.585212375458902,-75.51127425275341,327.2155217619314,37.755637126376705,25.170424750917803,-12.585212375458902,-37.755637126376705,-12.585212375458902
-37.755637126376705,-239.11903513371914,-88.09648662821232,37.755637126376705,25.170424750917803,-62.92606187729451,327.2155217619314,25.170424750917803,25.170424750917803,-12.585212375458902,-37.755637126376705,-12.585212375458902
-37.755637126376705,-226.53382275826021,-75.51127425275341,37.755637126376705,25.170424750917803,-62.92606187729451,339.80073413739035,25.170424750917803,25.170424750917803,-12.585212375458902,-37.755637126376705,-12.585212375458902
-50.340849501835606,-201.36339800734243,-62.92606187729451,37.755637126376705,12.585212375458902,-75.51127425275341,339.80073413739035,25.170424750917803,25.170424750917803,-12.585212375458902,-37.755637126376705,-12.585212375458902
-50.340849501835606,-176.19297325642464,-62.92606187729451,37.755637126376705,12.585212375458902,-75.51127425275341,339.80073413739035,25.170424750917803,25.170424750917803,-12.585212375458902,-37.755637126376705,-12.585212375458902
-50.340849501835606,-138.43733613004792,-50.340849501835606,37.755637126376705,12.585212375458902,-75.51127425275341,352.3859465128493,25.170424750917803,12.585212375458902,-12.585212375458902,-37.755637126376705,-12.585212375458902
-50.340849501835606,-113.26691137913011,-50.340849501835606,25.170424750917803,-0.0,-75.51127425275341,339.80073413739035,25.170424750917803,12.585212375458902,-12.585212375458902,-37.755637126376705,-12.585212375458902
-50.340849501835606,-75.51127425275341,-50.340849501835606,25.170424750917803,-0.0,-75.51127425275341,327.2155217619314,25.170424750917803,12.585212375458902,-12.585212375458902,-37.755637126376705,-12.585212375458902
-50.340849501835606,-50.340849501835606,-37.755637126376705,25.170424750917803,-0.0,-62.92606187729451,302.04509701101364,25.170424750917803,12.585212375458902,-12.585212375458902,-37.755637126376705,-12.585212375458902
-62.92606187729451,-37.755637126376705,-37.755637126376705,25.170424750917803,-0.0,-50.340849501835606,276.87467226009585,12.585212375458902,12.585212375458902,-12.585212375458902,-37.755637126376705,-12.585212375458902
-62.92606187729451,-12.585212375458902,-37.755637126376705,37.755637126376705,-0.0,-50.340849501835606,239.11903513371914,12.585212375458902,12.585212375458902,-12.585212375458902,-25.170424750917803,-12.585212375458902
-62.92606187729451,-0.0,-37.755637126376705,25.170424750917803,-0.0,-50.340849501835606,201.36339800734243,12.585212375458902,12.585212375458902,-12.585212375458902,-25.170424750917803,-12.585212375458902
-75.51127425275341,-0.0,-25.170424750917803,25.170424750917803,12.585212375458902,-50.340849501835606,163.6077608809657,12.585212375458902,-0.0,-12.585212375458902,-25.170424750917803,-12.585212375458902
-75.51127425275341,12.585212375458902,-25.170424750917803,25.170424750917803,25.170424750917803,-50.340849501835606,125.85212375458902,12.585212375458902,-0.0,-12.585212375458902,-25.170424750917803,-12.585212375458902
-88.09648662821232,25.170424750917803,-25.170424750917803,25.170424750917803,12.585212375458902,-62.92606187729451,100.68169900367121,12.585212375458902,-0.0,-12.585212375458902,-25.170424750917803,-12.585212375458902
-88.09648662821232,37.755637126376705,-25.170424750917803,25.170424750917803,12.585212375458902,-62.92606187729451,75.51127425275341,12.585212375458902,-0.0,-12.585212375458902,-25.170424750917803,-0.0
-100.68169900367121,37.755637126376705,-25.170424750917803,25.170424750917803,12.585212375458902,-62.92606187729451,50.340849501835606,12.585212375458902,-0.0,-12.585212375458902,-25.170424750917803,-0.0
-113.26691137913011,37.755637126376705,-25.170424750917803,25.170424750917803,12.585212375458902,-62.92606187729451,25.170424750917803,12.585212375458902,-0.0,-12.585212375458902,-25.170424750917803,-0.0
-125.85212375458902,50.340849501835606,-25.170424750917803,37.755637126376705,12.585212375458902,-62.92606187729451,12.585212375458902,12.585212375458902,-0.0,-12.585212375458902,-25.170424750917803,-0.0
-125.85212375458902,50.340849501835606,-25.170424750917803,37.755637126376705,12.585212375458902,-62.92606187729451,-0.0,12.585212375458902,-0.0,-12.585212375458902,-25.170424750917803,-0.0
-125.85212375458902,50.340849501835606,-12.585212375458902,37.755637126376705,12.585212375458902,-62.92606187729451,-0.0,12.585212375458902,-0.0,-12.585212375458902,-12.585212375458902,-0.0
-125.85212375458902,50.340849501835606,-12.585212375458902,25.170424750917803,12.585212375458902,-62.92606187729451,-12.585212375458902,12.585212375458902,-0.0,-12.585212375458902,-12.585212375458902,-0.0
-125.85212375458902,50.340849501835606,-0.0,25.170424750917803,12.585212375458902,-62.92606187729451,-12.585212375458902,-0.0,-0.0,-0.0,-12.585212375458902,-0.0
-125.85212375458902,50.340849501835606,-12.585212375458902,25.170424750917803,12.585212375458902,-62.92606187729451,-12.585212375458902,-0.0,-0.0,-0.0,-12.585212375458902,-0.0
-125.85212375458902,50.340849501835606,-12.585212375458902,37.755637126376705,12.585212375458902,-50.340849501835606,-12.585212375458902,-0.0,-12.585212375458902,-0.0,-12.585212375458902,-0.0
-113.26691137913011,62.92606187729451,-12.585212375458902,37.755637126376705,-0.0,-50.340849501835606,-12.585212375458902,-0.0,-12.585212375458902,-0.0,-12.585212375458902,-0.0
-113.26691137913011,62.92606187729451,-12.585212375458902,37.755637126376705,-0.0,-62.92606187729451,-25.170424750917803,-0.0,-12.585212375458902,-0.0,-12.585212375458902,-0.0
-100.68169900367121,62.92606187729451,-12.585212375458902,25.170424750917803,12.585212375458902,-62.92606187729451,-25.170424750917803,-0.0,-12.585212375458902,-0.0,-12.585212375458902,-0.0
-75.51127425275341,62.92606187729451,-12.585212375458902,25.170424750917803,12.585212375458902,-62.92606187729451,-25.170424750917803,-0.0,-12.585212375458902,-0.0,-12.585212375458902,-0.0
-62.92606187729451,50.340849501835606,-12.585212375458902,25.170424750917803,12.585212375458902,-62.92606187729451,-25.170424750917803,-0.0,-25.170424750917803,-0.0,-12.585212375458902,-0.0
-37.755637126376705,50.340849501835606,-12.585212375458902,50.340849501835606,-12.585212375458902,-62.92606187729451,-25.170424750917803,-0.0,-25.170424750917803,-0.0,-12.585212375458902,-0.0
-25.170424750917803,50.340849501835606,-12.585212375458902,37.755637126376705,-0.0,-62.92606187729451,-12.585212375458902,-0.0,-25.170424750917803,-0.0,-12.585212375458902,-0.0
-12.585212375458902,37.755637126376705,-12.585212375458902,-12.585212375458902,37.755637126376705,-50.340849501835606,-12.585212375458902,12.585212375458902,-25.170424750917803,12.585212375458902,-12.585212375458902,-0.0
-12.585212375458902,37.755637126376705,-12.585212375458902,-12.585212375458902,25.170424750917803,-62.92606187729451,-12.585212375458902,37.755637126376705,-25.170424750917803,-0.0,-12.585212375458902,-0.0
-0.0,25.170424750917803,-12.585212375458902,-0.0,-0.0,-50.340849501835606,-12.585212375458902,100.68169900367121,-25.170424750917803,-0.0,-12.585212375458902,-0.0
12.585212375458902,25.170424750917803,-12.585212375458902,12.585212375458902,-0.0,-37.755637126376705,-12.585212375458902,213.94861038280132,-12.585212375458902,-0.0,-12.585212375458902,-0.0
25.170424750917803,25.170424750917803,-12.585212375458902,12.585212375458902,-0.0,-37.755637126376705,-12.585212375458902,339.80073413739035,-12.585212375458902,-0.0,-0.0,12.585212375458902
25.170424750917803,25.170424750917803,-12.585212375458902,12.585212375458902,-0.0,-25.170424750917803,-12.585212375458902,427.89722076560264,12.585212375458902,-0.0,-0.0,12.585212375458902
25.170424750917803,25.170424750917803,-0.0,-0.0,-0.0,-25.170424750917803,-12.585212375458902,490.82328264289714,50.340849501835606,12.585212375458902,-0.0,25.170424750917803
25.170424750917803,25.170424750917803,-0.0,-0.0,-0.0,-25.170424750917803,-12.585212375458902,515.9937073938149,100.68169900367121,12.585212375458902,12.585212375458902,25.170424750917803
25.170424750917803,25.170424750917803,-0.0,-0.0,-0.0,-12.585212375458902,-12.585212375458902,478.2380702674383,138.43733613004792,12.585212375458902,12.585212375458902,25.170424750917803
25.170424750917803,25.170424750917803,-0.0,-0.0,-12.585212375458902,-12.585212375458902,-12.585212375458902,339.80073413739035,176.19297325642464,12.585212375458902,25.170424750917803,25.170424750917803
25.170424750917803,12.585212375458902,-0.0,-0.0,-12.585212375458902,-12.585212375458902,-0.0,88.09648662821232,239.11903513371914,12.585212375458902,37.755637126376705,37.755637126376705
25.170424750917803,12.585212375458902,-0.0,-12.585212375458902,-12.585212375458902,-12.585212375458902,-0.0,-226.53382275826021,327.2155217619314,25.170424750917803,50.340849501835606,50.340849501835606
25.170424750917803,12.585212375458902,-0.0,-12.585212375458902,-12.585212375458902,-12.585212375458902,-0.0,-566.3345568956506,453.06764551652043,37.755637126376705,50.340849501835606,50.340849501835606
25.170424750917803,12.585212375458902,-0.0,-12.585212375458902,-12.585212375458902,-0.0,-0.0,-830.6240167802875,503.40849501835606,37.755637126376705,62.92606187729451,62.92606187729451
25.170424750917803,12.585212375458902,-0.0,-25.170424750917803,-12.585212375458902,-0.0,-0.0,-1082.3282642894656,427.89722076560264,50.340849501835606,62.92606187729451,75.51127425275341
25.170424750917803,12.585212375458902,-0.0,-37.755637126376705,-0.0,-0.0,-0.0,-1359.2029365495614,239.11903513371914,62.92606187729451,50.340849501835606,62.92606187729451
25.170424750917803,12.585212375458902,-0.0,-50.340849501835606,-0.0,-0.0,-0.0,-1686.4184583114927,-12.585212375458902,75.51127425275341,37.755637126376705,50.340849501835606
25.170424750917803,12.585212375458902,-0.0,-62.92606187729451,-0.0,12.585212375458902,-0.0,-1950.7079181961296,-188.77818563188353,75.51127425275341,37.755637126376705,50.340849501835606
25.170424750917803,25.170424750917803,-0.0,-75.51127425275341,-0.0,25.170424750917803,-0.0,-2026.2191924488832,-339.80073413739035,88.09648662821232,37.755637126376705,50.340849501835606
25.170424750917803,25.170424750917803,-0.0,-75.51127425275341,12.585212375458902,37.755637126376705,-12.585212375458902,-1887.7818563188353,-566.3345568956506,88.09648662821232,25.170424750917803,50.340849501835606
25.170424750917803,25.170424750917803,-0.0,-62.92606187729451,25.170424750917803,50.340849501835606,-12.585212375458902,-1522.8106974305272,-868.3796539066642,75.51127425275341,12.585212375458902,37.755637126376705
25.170424750917803,25.170424750917803,-12.585212375458902,-37.755637126376705,25.170424750917803,50.340849501835606,-12.585212375458902,-918.7205034084998,-1107.4986890403834,50.340849501835606,12.585212375458902,37.755637126376705
25.170424750917803,25.170424750917803,-50.340849501835606,-25.170424750917803,25.170424750917803,37.755637126376705,-12.585212375458902,-289.4598846355547,-1208.1803880440546,50.340849501835606,-0.0,25.170424750917803
25.170424750917803,25.170424750917803,-100.68169900367121,-12.585212375458902,12.585212375458902,25.170424750917803,-12.585212375458902,138.43733613004792,-1132.6691137913012,50.340849501835606,-0.0,25.170424750917803
12.585212375458902,25.170424750917803,-176.19297325642464,-12.585212375458902,12.585212375458902,-0.0,-25.170424750917803,314.63030938647256,-880.9648662821231,37.755637126376705,-0.0,25.170424750917803
-0.0,12.585212375458902,-239.11903513371914,12.585212375458902,12.585212375458902,-0.0,-25.170424750917803,289.4598846355547,-390.1415836392259,25.170424750917803,-0.0,12.585212375458902
-0.0,-25.170424750917803,-264.2894598846369,25.170424750917803,12.585212375458902,-12.585212375458902,-25.170424750917803,201.36339800734243,163.6077608809657,12.585212375458902,-12.585212375458902,-0.0
-0.0,-88.09648662821232,-239.11903513371914,25.170424750917803,12.585212375458902,-25.170424750917803,-25.170424750917803,100.68169900367121,541.1641321447328,12.585212375458902,-12.585212375458902,-0.0
-0.0,-188.77818563188353,-151.02254850550682,25.170424750917803,12.585212375458902,-50.340849501835606,-12.585212375458902,75.51127425275341,679.6014682747807,-0.0,-12.585212375458902,-0.0
-0.0,-302.04509701101364,-37.755637126376705,25.170424750917803,12.585212375458902,-62.92606187729451,-0.0,100.68169900367121,553.7493445201917,-0.0,-12.585212375458902,-0.0
-0.0,-415.3120083901438,37.755637126376705,25.170424750917803,25.170424750917803,-62.92606187729451,25.170424750917803,125.85212375458902,302.04509701101364,-0.0,-12.585212375458902,-0.0
-12.585212375458902,-528.5789197692739,37.755637126376705,37.755637126376705,25.170424750917803,-62.92606187729451,88.09648662821232,125.85212375458902,50.340849501835606,-0.0,-12.585212375458902,-0.0
-12.585212375458902,-604.0901940220273,-12.585212375458902,50.340849501835606,25.170424750917803,-62.92606187729451,176.19297325642464,125.85212375458902,-75.51127425275341,-0.0,-25.170424750917803,-0.0
-12.585212375458902,-667.0162558993218,-75.51127425275341,62.92606187729451,25.170424750917803,-75.51127425275341,302.04509701101364,125.85212375458902,-88.09648662821232,-0.0,-25.170424750917803,-12.585212375458902
-12.585212375458902,-704.7718930256985,-100.68169900367121,113.26691137913011,25.170424750917803,-88.09648662821232,402.72679601468485,125.85212375458902,-50.340849501835606,-0.0,-25.170424750917803,-25.170424750917803
-25.170424750917803,-805.4535920293697,-163.6077608809657,201.36339800734243,37.755637126376705,-88.09648662821232,541.1641321447328,125.85212375458902,-37.755637126376705,-0.0,-88.09648662821232,-88.09648662821232
-25.170424750917803,-798.588930733665,-264.2894598846369,226.53382275826021,62.92606187729451,-100.68169900367121,629.2606187729451,125.85212375458902,-25.170424750917803,-0.0,-213.94861038280132,-188.77818563188353
-25.170424750917803,-791.72426943796,-415.3120083901438,138.43733613004792,50.340849501835606,-163.6077608809657,613.8786925362731,125.85212375458902,-25.170424750917803,-0.0,-364.97115888830814,-314.63030938647256
-25.170424750917803,-784.8596081422553,-604.0901940220273,-37.755637126376705,25.170424750917803,-264.2894598846369,598.4967662996011,125.85212375458902,-25.170424750917803,-0.0,-453.06764551652043,-364.97115888830814
-25.170424750917803,-777.9949468465502,-742.5275301520752,-364.97115888830814,12.585212375458902,-302.04509701101364,583.1148400629291,138.43733613004792,-25.170424750917803,25.170424750917803,-490.82328264289714,-327.2155217619314
-12.585212375458902,-771.1302855508455,-704.7718930256985,-755.1127425275341,50.340849501835606,-201.36339800734243,567.7329138262571,138.43733613004792,-25.170424750917803,25.170424750917803,-440.48243314106156,-201.36339800734243
-12.585212375458902,-764.2656242551404,-503.40849501835606,-1057.1578395385477,113.26691137913011,-0.0,552.3509875895851,138.43733613004792,-25.170424750917803,-0.0,-289.4598846355547,50.340849501835606
-12.585212375458902,-757.4009629594358,-201.36339800734243,-1195.5951756685956,50.340849501835606,327.2155217619314,536.9690613529132,138.43733613004792,-25.170424750917803,-50.340849501835606,-50.340849501835606,339.80073413739035
-12.585212375458902,-750.5363016637307,-12.585212375458902,-1195.5951756685956,-75.51127425275341,679.6014682747807,521.5871351162411,151.02254850550682,-25.170424750917803,-125.85212375458902,264.2894598846369,604.0901940220273
-12.585212375458902,-743.671640368026,25.170424750917803,-1132.6691137913012,-151.02254850550682,943.8909281594176,506.20520887956917,151.02254850550682,-25.170424750917803,-201.36339800734243,604.0901940220273,843.2092291557464
-12.585212375458902,-736.806979072321,25.170424750917803,-994.2317776612532,-163.6077608809657,1120.0839014158423,490.82328264289714,151.02254850550682,-25.170424750917803,-264.2894598846369,918.7205034084998,1006.8169900367121
-12.585212375458902,-729.9423177766163,-0.0,-767.697954902993,-125.85212375458902,1245.9360251704313,151.02254850550682,151.02254850550682,-25.170424750917803,-339.80073413739035,1094.9134766649245,1057.1578395385477
-25.170424750917803,-503.40849501835606,-12.585212375458902,-528.5789197692739,-37.755637126376705,1271.1064499213492,-75.51127425275341,163.6077608809657,-25.170424750917803,-339.80073413739035,1069.7430519140066,956.4761405348765
-25.170424750917803,-415.3120083901438,-25.170424750917803,-339.80073413739035,-0.0,1132.6691137913012,-163.6077608809657,163.6077608809657,-25.170424750917803,-188.77818563188353,956.4761405348765,792.8683796539108
-37.755637126376705,-453.06764551652043,-25.170424750917803,-188.77818563188353,12.585212375458902,868.3796539066642,-138.43733613004792,163.6077608809657,-25.170424750917803,125.85212375458902,818.0388044048286,629.2606187729451
-75.51127425275341,-453.06764551652043,-0.0,-75.51127425275341,25.170424750917803,566.3345568956506,138.43733613004792,176.19297325642464,-25.170424750917803,465.65285789197935,616.6754063974862,453.06764551652043
-125.85212375458902,-402.72679601468485,37.755637126376705,-0.0,37.755637126376705,314.63030938647256,503.40849501835606,188.77818563188353,-25.170424750917803,704.7718930256985,415.3120083901438,302.04509701101364
-176.19297325642464,-276.87467226009585,62.92606187729451,37.755637126376705,50.340849501835606,151.02254850550682,531.0959622443656,188.77818563188353,-25.170424750917803,780.2831672784519,264.2894598846369,176.19297325642464
-213.94861038280132,-125.85212375458902,62.92606187729451,50.340849501835606,50.340849501835606,25.170424750917803,558.7834294703753,201.36339800734243,-25.170424750917803,755.1127425275341,151.02254850550682,75.51127425275341
-302.04509701101364,-12.585212375458902,75.51127425275341,62.92606187729451,37.755637126376705,-62.92606187729451,586.4708966963848,201.36339800734243,-25.170424750917803,667.0162558993218,50.340849501835606,25.170424750917803
-415.3120083901438,100.68169900367121,88.09648662821232,62.92606187729451,25.170424750917803,-100.68169900367121,614.1583639223944,213.94861038280132,-25.170424750917803,478.2380702674383,12.585212375458902,-0.0
-566.3345568956506,176.19297325642464,88.09648662821232,62.92606187729451,25.170424750917803,-125.85212375458902,641.8458311484039,213.94861038280132,-25.170424750917803,314.63030938647256,-0.0,-0.0
-717.3571054011574,226.53382275826021,100.68169900367121,75.51127425275341,25.170424750917803,-125.85212375458902,453.06764551652043,226.53382275826021,-25.170424750917803,213.94861038280132,-0.0,12.585212375458902
-893.550078657582,239.11903513371914,113.26691137913011,75.51127425275341,25.170424750917803,-113.26691137913011,188.77818563188353,239.11903513371914,-25.170424750917803,125.85212375458902,-0.0,-0.0
-1019.402202412171,264.2894598846369,125.85212375458902,75.51127425275341,25.170424750917803,-113.26691137913011,25.170424750917803,239.11903513371914,-25.170424750917803,62.92606187729451,-0.0,-0.0
-1044.5726271630888,276.87467226009585,125.85212375458902,75.51127425275341,25.170424750917803,-113.26691137913011,-50.340849501835606,251.70424750917803,-37.755637126376705,25.170424750917803,-0.0,-0.0
-994.2317776612532,289.4598846355547,125.85212375458902,75.51127425275341,25.170424750917803,-113.26691137913011,-100.68169900367121,251.70424750917803,-37.755637126376705,12.585212375458902,-0.0,-0.0
-981.6465652857943,302.04509701101364,138.43733613004792,75.51127425275341,25.170424750917803,-125.85212375458902,-125.85212375458902,251.70424750917803,-50.340849501835606,12.585212375458902,-0.0,-0.0
-1006.8169900367121,314.63030938647256,138.43733613004792,75.51127425275341,25.170424750917803,-125.85212375458902,-151.02254850550682,239.11903513371914,-50.340849501835606,25.170424750917803,-0.0,-0.0
-931.3057157839587,327.2155217619314,138.43733613004792,75.51127425275341,37.755637126376705,-125.85212375458902,-163.6077608809657,226.53382275826021,-50.340849501835606,25.170424750917803,-0.0,-0.0
-755.1127425275341,339.80073413739035,151.02254850550682,75.51127425275341,25.170424750917803,-125.85212375458902,-176.19297325642464,213.94861038280132,-62.92606187729451,25.170424750917803,-0.0,-0.0
-591.5049816465684,352.3859465128493,151.02254850550682,75.51127425275341,25.170424750917803,-125.85212375458902,-188.77818563188353,201.36339800734243,-75.51127425275341,25.170424750917803,-0.0,-0.0
-453.06764551652043,364.97115888830814,151.02254850550682,75.51127425275341,25.170424750917803,-125.85212375458902,-188.77818563188353,163.6077608809657,-88.09648662821232,25.170424750917803,12.585212375458902,12.585212375458902
-327.2155217619314,377.55637126376706,163.6077608809657,75.51127425275341,25.170424750917803,-125.85212375458902,-201.36339800734243,138.43733613004792,-100.68169900367121,25.170424750917803,12.585212375458902,-0.0
-264.2894598846369,390.1415836392259,176.19297325642464,62.92606187729451,37.755637126376705,-125.85212375458902,-213.94861038280132,100.68169900367121,-113.26691137913011,25.170424750917803,12.585212375458902,-0.0
-339.80073413739035,415.3120083901438,176.19297325642464,75.51127425275341,37.755637126376705,-125.85212375458902,-226.53382275826021,62.92606187729451,-125.85212375458902,37.755637126376705,12.585212375458902,12.585212375458902
-453.06764551652043,427.89722076560264,188.77818563188353,75.51127425275341,25.170424750917803,-125.85212375458902,-226.53382275826021,25.170424750917803,-151.02254850550682,37.755637126376705,25.170424750917803,-0.0
-528.5789197692739,453.06764551652043,201.36339800734243,75.51127425275341,25.170424750917803,-125.85212375458902,-239.11903513371914,-0.0,-163.6077608809657,50.340849501835606,25.170424750917803,-0.0
-528.5789197692739,478.2380702674383,213.94861038280132,75.51127425275341,37.755637126376705,-125.85212375458902,-251.70424750917803,-25.170424750917803,-176.19297325642464,50.340849501835606,25.170424750917803,-0.0
-453.06764551652043,490.82328264289714,239.11903513371914,75.51127425275341,25.170424750917803,-125.85212375458902,-251.70424750917803,-25.170424750917803,-201.36339800734243,50.340849501835606,25.170424750917803,-0.0
-314.63030938647256,515.9937073938149,251.70424750917803,88.09648662821232,37.755637126376705,-125.85212375458902,-264.2894598846369,-25.170424750917803,-226.53382275826021,50.340849501835606,12.585212375458902,-0.0
-151.02254850550682,541.1641321447328,264.2894598846369,88.09648662821232,25.170424750917803,-125.85212375458902,-276.87467226009585,-25.170424750917803,-239.11903513371914,50.340849501835606,12.585212375458902,-0.0
-25.170424750917803,578.9197692711094,289.4598846355547,88.09648662821232,25.170424750917803,-125.85212375458902,-302.04509701101364,-25.170424750917803,-239.11903513371914,50.340849501835606,12.585212375458902,-0.0
50.340849501835606,616.6754063974862,302.04509701101364,88.09648662821232,25.170424750917803,-138.43733613004792,-314.63030938647256,-25.170424750917803,-239.11903513371914,50.340849501835606,-0.0,-0.0
88.09648662821232,654.4310435238629,327.2155217619314,88.09648662821232,25.170424750917803,-138.43733613004792,-327.2155217619314,-12.585212375458902,-213.94861038280132,50.340849501835606,-0.0,-0.0
113.26691137913011,692.1866806502396,352.3859465128493,100.68169900367121,25.170424750917803,-125.85212375458902,-339.80073413739035,-0.0,-201.36339800734243,50.340849501835606,-0.0,-12.585212375458902
125.85212375458902,742.5275301520752,377.55637126376706,100.68169900367121,25.170424750917803,-125.85212375458902,-364.97115888830814,-0.0,-176.19297325642464,50.340849501835606,-0.0,-12.585212375458902
138.43733613004792,792.8683796539108,390.1415836392259,113.26691137913011,25.170424750917803,-138.43733613004792,-377.55637126376706,-0.0,-151.02254850550682,50.340849501835606,-12.585212375458902,-25.170424750917803
151.02254850550682,843.2092291557464,415.3120083901438,113.26691137913011,25.170424750917803,-151.02254850550682,-402.72679601468485,12.585212375458902,-113.26691137913011,37.755637126376705,-12.585212375458902,-25.170424750917803
163.6077608809657,893.550078657582,440.48243314106156,125.85212375458902,12.585212375458902,-151.02254850550682,-427.89722076560264,12.585212375458902,-88.09648662821232,25.170424750917803,-25.170424750917803,-25.170424750917803
163.6077608809657,943.8909281594176,465.65285789197935,138.43733613004792,12.585212375458902,-163.6077608809657,-465.65285789197935,25.170424750917803,-62.92606187729451,25.170424750917803,-37.755637126376705,-37.755637126376705
163.6077608809657,994.2317776612532,490.82328264289714,151.02254850550682,12.585212375458902,-163.6077608809657,-490.82328264289714,25.170424750917803,-50.340849501835606,25.170424750917803,-37.755637126376705,-37.755637126376705
163.6077608809657,1031.9874147876299,503.40849501835606,163.6077608809657,12.585212375458902,-163.6077608809657,-515.9937073938149,25.170424750917803,-37.755637126376705,12.585212375458902,-50.340849501835606,-50.340849501835606
176.19297325642464,1082.3282642894656,528.5789197692739,163.6077608809657,12.585212375458902,-176.19297325642464,-541.1641321447328,25.170424750917803,-25.170424750917803,12.585212375458902,-62.92606187729451,-62.92606187729451
176.19297325642464,1120.0839014158423,541.1641321447328,176.19297325642464,-0.0,-176.19297325642464,-578.9197692711094,25.170424750917803,-12.585212375458902,12.585212375458902,-75.51127425275341,-62.92606187729451
176.19297325642464,1157.8395385422189,541.1641321447328,188.77818563188353,-0.0,-188.77818563188353,-616.6754063974862,25.170424750917803,-0.0,-0.0,-88.09648662821232,-75.51127425275341
188.77818563188353,1170.4247509176778,541.1641321447328,188.77818563188353,-0.0,-201.36339800734243,-641.8458311484039,25.170424750917803,-0.0,-12.585212375458902,-100.68169900367121,-75.51127425275341
201.36339800734243,1183.0099632931367,528.5789197692739,188.77818563188353,-0.0,-213.94861038280132,-667.0162558993218,37.755637126376705,-0.0,-25.170424750917803,-113.26691137913011,-75.51127425275341
213.94861038280132,1195.5951756685956,490.82328264289714,188.77818563188353,-0.0,-213.94861038280132,-704.7718930256985,37.755637126376705,-0.0,-37.755637126376705,-125.85212375458902,-88.09648662821232
226.53382275826021,1183.0099632931367,465.65285789197935,188.77818563188353,-0.0,-213.94861038280132,-717.3571054011574,37.755637126376705,-0.0,-50.340849501835606,-138.43733613004792,-100.68169900367121
239.11903513371914,1157.8395385422189,427.89722076560264,176.19297325642464,-0.0,-213.94861038280132,-742.5275301520752,37.755637126376705,-0.0,-62.92606187729451,-151.02254850550682,-100.68169900367121
251.70424750917803,1120.0839014158423,377.55637126376706,163.6077608809657,-0.0,-213.94861038280132,-767.697954902993,37.755637126376705,12.585212375458902,-75.51127425275341,-151.02254850550682,-100.68169900367121
264.2894598846369,1057.1578395385477,327.2155217619314,151.02254850550682,-0.0,-201.36339800734243,-767.697954902993,37.755637126376705,12.585212375458902,-88.09648662821232,-151.02254850550682,-100.68169900367121
276.87467226009585,981.6465652857943,289.4598846355547,125.85212375458902,-0.0,-188.77818563188353,-780.2831672784519,37.755637126376705,12.585212375458902,-100.68169900367121,-151.02254850550682,-100.68169900367121
302.04509701101364,893.550078657582,239.11903513371914,100.68169900367121,-0.0,-188.77818563188353,-780.2831672784519,50.340849501835606,12.585212375458902,-100.68169900367121,-151.02254850550682,-88.09648662821232
327.2155217619314,805.4535920293697,201.36339800734243,88.09648662821232,-0.0,-163.6077608809657,-755.1127425275341,50.340849501835606,12.585212375458902,-113.26691137913011,-138.43733613004792,-75.51127425275341
352.3859465128493,704.7718930256985,176.19297325642464,75.51127425275341,-0.0,-125.85212375458902,-729.9423177766163,50.340849501835606,12.585212375458902,-113.26691137913011,-125.85212375458902,-62.92606187729451
377.55637126376706,616.6754063974862,151.02254850550682,50.340849501835606,12.585212375458902,-113.26691137913011,-692.1866806502396,50.340849501835606,12.585212375458902,-113.26691137913011,-113.26691137913011,-62.92606187729451
402.72679601468485,515.9937073938149,125.85212375458902,37.755637126376705,12.585212375458902,-113.26691137913011,-641.8458311484039,37.755637126376705,12.585212375458902,-113.26691137913011,-113.26691137913011,-50.340849501835606
427.89722076560264,440.48243314106156,100.68169900367121,25.170424750917803,12.585212375458902,-100.68169900367121,-578.9197692711094,37.755637126376705,12.585212375458902,-113.26691137913011,-100.68169900367121,-37.755637126376705
453.06764551652043,364.97115888830814,88.09648662821232,12.585212375458902,12.585212375458902,-88.09648662821232,-503.40849501835606,37.755637126376705,25.170424750917803,-88.09648662821232,-75.51127425275341,-25.170424750917803
490.82328264289714,302.04509701101364,75.51127425275341,-0.0,12.585212375458902,-75.51127425275341,-440.48243314106156,37.755637126376705,25.170424750917803,-75.51127425275341,-62.92606187729451,-12.585212375458902
0.0,251.70424750917803,75.51127425275341,-0.0,12.585212375458902,-62.92606187729451,-352.3859465128493,37.755637126376705,25.170424750917803,-75.51127425275341,-50.340849501835606,-0.0
0.0,201.36339800734243,62.92606187729451,-0.0,12.585212375458902,-50.340849501835606,-289.4598846355547,37.755637126376705,25.170424750917803,-75.51127425275341,-37.755637126376705,-0.0
0.0,176.19297325642464,62.92606187729451,-0.0,12.585212375458902,-37.755637126376705,-226.53382275826021,37.755637126376705,25.170424750917803,-62.92606187729451,-25.170424750917803,12.585212375458902
0.0,151.02254850550682,62.92606187729451,-0.0,25.170424750917803,-37.755637126376705,-176.19297325642464,37.755637126376705,25.170424750917803,-50.340849501835606,-12.585212375458902,12.585212375458902
0.0,138.43733613004792,62.92606187729451,-12.585212375458902,25.170424750917803,-25.170424750917803,-138.43733613004792,25.170424750917803,12.585212375458902,-37.755637126376705,-12.585212375458902,25.170424750917803
0.0,113.26691137913011,62.92606187729451,-12.585212375458902,25.170424750917803,-25.170424750917803,-100.68169900367121,25.170424750917803,12.585212375458902,-25.170424750917803,-0.0,25.170424750917803
0.0,113.26691137913011,0.0,-12.585212375458902,0.0,0.0,-75.51127425275341,12.585212375458902,0.0,-12.585212375458902,-0.0,25.170424750917803
0.0,113.26691137913011,0.0,-12.585212375458902,0.0,0.0,-50.340849501835606,12.585212375458902,0.0,-0.0,0.0,25.170424750917803
0.0,100.68169900367121,0.0,0.0,0.0,0.0,-37.755637126376705,0.0,0.0,12.585212375458902,0.0,25.170424750917803
0.0,88.09648662821232,0.0,0.0,0.0,0.0,-37.755637126376705,0.0,0.0,0.0,0.0,0.0
0.0,88.09648662821232,0.0,0.0,0.0,0.0,-25.170424750917803,0.0,0.0,0.0,0.0,0.0
0.0,88.09648662821232,0.0,0.0,0.0,0.0,-25.170424750917803,0.0,0.0,0.0,0.0,0.0
0.0,88.09648662821232,0.0,0.0,0.0,0.0,-25.170424750917803,0.0,0.0,0.0,0.0,0.0
0.0,88.09648662821232,0.0,0.0,0.0,0.0,-12.585212375458902,0.0,0.0,0.0,0.0,0.0
0.0,88.09648662821232,0.0,0.0,0.0,0.0,-12.585212375458902,0.0,0.0,0.0,0.0,0.0
0.0,88.09648662821232,0.0,0.0,0.0,0.0,-12.585212375458902,0.0,0.0,0.0,0.0,0.0
0.0,100.68169900367121,0.0,0.0,0.0,0.0,-12.585212375458902,0.0,0.0,0.0,0.0,0.0
0.0,100.68169900367121,0.0,0.0,0.0,0.0,-12.585212375458902,0.0,0.0,0.0,0.0,0.0
0.0,100.68169900367121,0.0,0.0,0.0,0.0,-12.585212375458902,0.0,0.0,0.0,0.0,0.0
0.0,88.09648662821232,0.0,0.0,0.0,0.0,-12.585212375458902,0.0,0.0,0.0,0.0,0.0
0.0,88.09648662821232,0.0,0.0,0.0,0.0,-12.585212375458902,0.0,0.0,0.0,0.0,0.0
0.0,88.09648662821232,0.0,0.0,0.0,0.0,-12.585212375458902,0.0,0.0,0.0,0.0,0.0
0.0,88.09648662821232,0.0,0.0,0.0,0.0,-12.585212375458902,0.0,0.0,0.0,0.0,0.0
0.0,88.09648662821232,0.0,0.0,0.0,0.0,-12.585212375458902,0.0,0.0,0.0,0.0,0.0
0.0,88.09648662821232,0.0,0.0,0.0,0.0,-12.585212375458902,0.0,0.0,0.0,0.0,0.0
0.0,88.09648662821232,0.0,0.0,0.0,0.0,-12.585212375458902,0.0,0.0,0.0,0.0,0.0
0.0,75.51127425275341,0.0,0.0,0.0,0.0,-12.585212375458902,0.0,0.0,0.0,0.0,0.0
0.0,75.51127425275341,0.0,0.0,0.0,0.0,-12.585212375458902,0.0,0.0,0.0,0.0,0.0
0.0,75.51127425275341,0.0,0.0,0.0,0.0,-12.585212375458902,0.0,0.0,0.0,0.0,0.0
0.0,75.51127425275341,0.0,0.0,0.0,0.0,-12.585212375458902,0.0,0.0,0.0,0.0,0.0
0.0,62.92606187729451,0.0,0.0,0.0,0.0,-12.585212375458902,0.0,0.0,0.0,0.0,0.0
0.0,62.92606187729451,0.0,0.0,0.0,0.0,-12.585212375458902,0.0,0.0,0.0,0.0,0.0
0.0,62.92606187729451,0.0,0.0,0.0,0.0,-12.585212375458902,0.0,0.0,0.0,0.0,0.0
0.0,62.92606187729451,0.0,0.0,0.0,0.0,-12.585212375458902,0.0,0.0,0.0,0.0,0.0
0.0,62.92606187729451,0.0,0.0,0.0,0.0,-12.585212375458902,0.0,0.0,0.0,0.0,0.0
0.0,62.92606187729451,0.0,0.0,0.0,0.0,-12.585212375458902,0.0,0.0,0.0,0.0,0.0
0.0,62.92606187729451,0.0,0.0,0.0,0.0,-12.585212375458902,0.0,0.0,0.0,0.0,0.0
0.0,62.92606187729451,0.0,0.0,0.0,0.0,-12.585212375458902,0.0,0.0,0.0,0.0,0.0
0.0,62.92606187729451,0.0,0.0,0.0,0.0,-12.585212375458902,0.0,0.0,0.0,0.0,0.0
0.0,50.340849501835606,0.0,0.0,0.0,0.0,-12.585212375458902,0.0,0.0,0.0,0.0,0.0
0.0,50.340849501835606,0.0,0.0,0.0,0.0,-12.585212375458902,0.0,0.0,0.0,0.0,0.0
0.0,50.340849501835606,0.0,0.0,0.0,0.0,-12.585212375458902,0.0,0.0,0.0,0.0,0.0
0.0,50.340849501835606,0.0,0.0,0.0,0.0,-12.585212375458902,0.0,0.0,0.0,0.0,0.0
0.0,50.340849501835606,0.0,0.0,0.0,0.0,-12.585212375458902,0.0,0.0,0.0,0.0,0.0
0.0,50.340849501835606,0.0,0.0,0.0,0.0,-12.585212375458902,0.0,0.0,0.0,0.0,0.0
0.0,50.340849501835606,0.0,0.0,0.0,0.0,-12.585212375458902,0.0,0.0,0.0,0.0,0.0
0.0,50.340849501835606,0.0,0.0,0.0,0.0,-12.585212375458902,0.0,0.0,0.0,0.0,0.0
0.0,50.340849501835606,0.0,0.0,0.0,0.0,-12.585212375458902,0.0,0.0,0.0,0.0,0.0
0.0,50.340849501835606,0.0,0.0,0.0,0.0,-12.585212375458902,0.0,0.0,0.0,0.0,0.0
0.0,50.340849501835606,0.0,0.0,0.0,0.0,-12.585212375458902,0.0,0.0,0.0,0.0,0.0
0.0,50.340849501835606,0.0,0.0,0.0,0.0,-12.585212375458902,0.0,0.0,0.0,0.0,0.0
0.0,50.340849501835606,0.0,0.0,0.0,0.0,-12.585212375458902,0.0,0.0,0.0,0.0,0.0
0.0,50.340849501835606,0.0,0.0,0.0,0.0,-12.585212375458902,0.0,0.0,0.0,0.0,0.0
0.0,50.340849501835606,0.0,0.0,0.0,0.0,-12.585212375458902,0.0,0.0,0.0,0.0,0.0
0.0,50.340849501835606,0.0,0.0,0.0,0.0,-12.585212375458902,0.0,0.0,0.0,0.0,0.0
0.0,50.340849501835606,0.0,0.0,0.0,0.0,-12.585212375458902,0.0,0.0,0.0,0.0,0.0
0.0,50.340849501835606,0.0,0.0,0.0,0.0,-12.585212375458902,0.0,0.0,0.0,0.0,0.0
0.0,50.340849501835606,0.0,0.0,0.0,0.0,-12.585212375458902,0.0,0.0,0.0,0.0,0.0
0.0,50.340849501835606,0.0,0.0,0.0,0.0,-12.585212375458902,0.0,0.0,0.0,0.0,0.0
0.0,50.340849501835606,0.0,0.0,0.0,0.0,-12.585212375458902,0.0,0.0,0.0,0.0,0.0
0.0,50.340849501835606,0.0,0.0,0.0,0.0,-12.585212375458902,0.0,0.0,0.0,0.0,0.0
0.0,50.340849501835606,0.0,0.0,0.0,0.0,-12.585212375458902,0.0,0.0,0.0,0.0,0.0
0.0,50.340849501835606,0.0,0.0,0.0,0.0,-12.585212375458902,0.0,0.0,0.0,0.0,0.0
0.0,50.340849501835606,0.0,0.0,0.0,0.0,-12.585212375458902,0.0,0.0,0.0,0.0,0.0
0.0,50.340849501835606,0.0,0.0,0.0,0.0,-12.585212375458902,0.0,0.0,0.0,0.0,0.0
0.0,50.340849501835606,0.0,0.0,0.0,0.0,-12.585212375458902,0.0,0.0,0.0,0.0,0.0
0.0,50.340849501835606,0.0,0.0,0.0,0.0,-12.585212375458902,0.0,0.0,0.0,0.0,0.0
0.0,50.340849501835606,0.0,0.0,0.0,0.0,-12.585212375458902,0.0,0.0,0.0,0.0,0.0
0.0,50.340849501835606,0.0,0.0,0.0,0.0,-12.585212375458902,0.0,0.0,0.0,0.0,0.0
0.0,50.340849501835606,0.0,0.0,0.0,0.0,-12.585212375458902,0.0,0.0,0.0,0.0,0.0
0.0,50.340849501835606,0.0,0.0,0.0,0.0,-12.585212375458902,0.0,0.0,0.0,0.0,0.0
0.0,50.340849501835606,0.0,0.0,0.0,0.0,-12.585212375458902,0.0,0.0,0.0,0.0,0.0
0.0,50.340849501835606,0.0,0.0,0.0,0.0,-12.585212375458902,0.0,0.0,0.0,0.0,0.0
0.0,37.755637126376705,0.0,0.0,0.0,0.0,-12.585212375458902,0.0,0.0,0.0,0.0,0.0
0.0,37.755637126376705,0.0,0.0,0.0,0.0,-12.585212375458902,0.0,0.0,0.0,0.0,0.0
0.0,50.340849501835606,0.0,0.0,0.0,0.0,-12.585212375458902,0.0,0.0,0.0,0.0,0.0
0.0,50.340849501835606,0.0,0.0,0.0,0.0,-12.585212375458902,0.0,0.0,0.0,0.0,0.0
0.0,50.340849501835606,0.0,0.0,0.0,0.0,-12.585212375458902,0.0,0.0,0.0,0.0,0.0
0.0,50.340849501835606,0.0,0.0,0.0,0.0,-12.585212375458902,0.0,0.0,0.0,0.0,0.0
0.0,50.340849501835606,0.0,0.0,0.0,0.0,-12.585212375458902,0.0,0.0,0.0,0.0,0.0
0.0,50.340849501835606,0.0,0.0,0.0,0.0,-12.585212375458902,0.0,0.0,0.0,0.0,0.0
0.0,50.340849501835606,0.0,0.0,0.0,0.0,-12.585212375458902,0.0,0.0,0.0,0.0,0.0
0.0,50.340849501835606,0.0,0.0,0.0,0.0,-12.585212375458902,0.0,0.0,0.0,0.0,0.0
0.0,50.340849501835606,0.0,0.0,0.0,0.0,-12.585212375458902,0.0,0.0,0.0,0.0,0.0
0.0,37.755637126376705,0.0,0.0,0.0,0.0,-12.585212375458902,0.0,0.0,0.0,0.0,0.0
0.0,37.755637126376705,0.0,0.0,0.0,0.0,-12.585212375458902,0.0,0.0,0.0,0.0,0.0
0.0,50.340849501835606,0.0,0.0,0.0,0.0,-12.585212375458902,0.0,0.0,0.0,0.0,0.0
0.0,50.340849501835606,0.0,0.0,0.0,0.0,-25.170424750917803,0.0,0.0,0.0,0.0,0.0
0.0,62.92606187729451,0.0,0.0,0.0,0.0,-25.170424750917803,0.0,0.0,0.0,0.0,0.0
0.0,62.92606187729451,0.0,0.0,0.0,0.0,-25.170424750917803,0.0,0.0,0.0,0.0,0.0
0.0,75.51127425275341,0.0,0.0,0.0,0.0,-25.170424750917803,0.0,0.0,0.0,0.0,0.0
0.0,88.09648662821232,0.0,0.0,0.0,0.0,-12.585212375458902,0.0,0.0,0.0,0.0,0.0
0.0,100.68169900367121,0.0,0.0,0.0,0.0,-12.585212375458902,0.0,0.0,0.0,0.0,0.0
0.0,125.85212375458902,0.0,0.0,0.0,0.0,-0.0,0.0,0.0,0.0,0.0,0.0
0.0,138.43733613004792,0.0,0.0,0.0,0.0,12.585212375458902,0.0,0.0,0.0,0.0,0.0
0.0,151.02254850550682,0.0,0.0,0.0,0.0,12.585212375458902,0.0,0.0,0.0,0.0,0.0
0.0,151.02254850550682,0.0,0.0,0.0,0.0,12.585212375458902,0.0,0.0,0.0,0.0,0.0
0.0,163.6077608809657,0.0,0.0,0.0,0.0,25.170424750917803,0.0,0.0,0.0,0.0,0.0
0.0,176.19297325642464,0.0,0.0,0.0,0.0,37.755637126376705,0.0,0.0,0.0,0.0,0.0
0.0,163.6077608809657,0.0,0.0,0.0,0.0,25.170424750917803,0.0,0.0,0.0,0.0,0.0
0.0,138.43733613004792,0.0,0.0,0.0,0.0,12.585212375458902,0.0,0.0,0.0,0.0,0.0
0.0,113.26691137913011,0.0,0.0,0.0,0.0,-12.585212375458902,0.0,0.0,0.0,0.0,0.0
0.0,113.26691137913011,0.0,0.0,0.0,0.0,-50.340849501835606,0.0,0.0,0.0,0.0,0.0
0.0,113.26691137913011,0.0,0.0,0.0,0.0,-75.51127425275341,0.0,0.0,0.0,0.0,0.0
0.0,100.68169900367121,0.0,0.0,0.0,0.0,-75.51127425275341,0.0,0.0,0.0,0.0,0.0
0.0,75.51127425275341,0.0,0.0,0.0,0.0,-88.09648662821232,0.0,0.0,0.0,0.0,0.0
0.0,62.92606187729451,0.0,0.0,0.0,0.0,-88.09648662821232,0.0,0.0,0.0,0.0,0.0
0.0,50.340849501835606,0.0,0.0,0.0,0.0,-100.68169900367121,0.0,0.0,0.0,0.0,0.0
0.0,37.755637126376705,0.0,0.0,0.0,0.0,-100.68169900367121,0.0,0.0,0.0,0.0,0.0
0.0,25.170424750917803,0.0,0.0,0.0,0.0,-100.68169900367121,0.0,0.0,0.0,0.0,0.0
0.0,12.585212375458902,0.0,0.0,0.0,0.0,-100.68169900367121,0.0,0.0,0.0,0.0,0.0
0.0,-0.0,0.0,0.0,0.0,0.0,-88.09648662821232,0.0,0.0,0.0,0.0,0.0
0.0,-0.0,0.0,0.0,0.0,0.0,-75.51127425275341,0.0,0.0,0.0,0.0,0.0
0.0,-0.0,0.0,0.0,0.0,0.0,-62.92606187729451,0.0,0.0,0.0,0.0,0.0
0.0,-0.0,0.0,0.0,0.0,0.0,-62.92606187729451,0.0,0.0,0.0,0.0,0.0
0.0,-0.0,0.0,0.0,0.0,0.0,-50.340849501835606,0.0,0.0,0.0,0.0,0.0
0.0,-12.585212375458902,0.0,0.0,0.0,0.0,-50.340849501835606,0.0,0.0,0.0,0.0,0.0
0.0,-12.585212375458902,0.0,0.0,0.0,0.0,-50.340849501835606,0.0,0.0,0.0,0.0,0.0
0.0,-12.585212375458902,0.0,0.0,0.0,0.0,-37.755637126376705,0.0,0.0,0.0,0.0,0.0
0.0,-37.755637126376705,0.0,0.0,0.0,0.0,-37.755637126376705,0.0,0.0,0.0,0.0,0.0
0.0,-125.85212375458902,0.0,0.0,0.0,0.0,-25.170424750917803,0.0,0.0,0.0,0.0,0.0
0.0,-201.36339800734243,0.0,0.0,0.0,0.0,-12.585212375458902,0.0,0.0,0.0,0.0,0.0
0.0,-138.43733613004792,0.0,0.0,0.0,0.0,37.755637126376705,0.0,0.0,0.0,0.0,0.0
0.0,50.340849501835606,0.0,0.0,0.0,0.0,176.19297325642464,0.0,0.0,0.0,0.0,0.0
0.0,427.89722076560264,0.0,0.0,0.0,0.0,390.1415836392259,0.0,0.0,0.0,0.0,0.0
0.0,1145.25432616676,0.0,0.0,0.0,0.0,503.40849501835606,0.0,0.0,0.0,0.0,0.0
0.0,1245.9360251704313,0.0,0.0,0.0,0.0,440.48243314106156,0.0,0.0,0.0,0.0,0.0
0.0,1472.4698479286915,0.0,0.0,0.0,0.0,352.3859465128493,0.0,0.0,0.0,0.0,0.0
0.0,1585.7367593078216,0.0,0.0,0.0,0.0,-88.09648662821232,0.0,0.0,0.0,0.0,0.0
0.0,616.6754063974862,0.0,0.0,0.0,0.0,-406.9218668065046,0.0,0.0,0.0,0.0,0.0
0.0,1094.9134766649245,0.0,0.0,0.0,0.0,-725.7472469847967,0.0,0.0,0.0,0.0,0.0
0.0,1384.3733613004792,0.0,0.0,0.0,0.0,-1044.5726271630888,0.0,0.0,0.0,0.0,0.0
0.0,943.8909281594176,0.0,0.0,0.0,0.0,-931.3057157839587,0.0,0.0,0.0,0.0,0.0
0.0,604.0901940220273,0.0,0.0,0.0,0.0,-855.7944415312053,0.0,0.0,0.0,0.0,0.0
0.0,364.97115888830814,0.0,0.0,0.0,0.0,-943.8909281594176,0.0,0.0,0.0,0.0,0.0
0.0,176.19297325642464,0.0,0.0,0.0,0.0,-1082.3282642894656,0.0,0.0,0.0,0.0,0.0
0.0,75.51127425275341,0.0,0.0,0.0,0.0,-654.4310435238629,0.0,0.0,0.0,0.0,0.0
0.0,-0.0,0.0,0.0,0.0,0.0,-390.1415836392259,0.0,0.0,0.0,0.0,0.0
0.0,-50.340849501835606,0.0,0.0,0.0,0.0,-213.94861038280132,0.0,0.0,0.0,0.0,0.0
0.0,-62.92606187729451,0.0,0.0,0.0,0.0,-75.51127425275341,0.0,0.0,0.0,0.0,0.0
0.0,-62.92606187729451,0.0,0.0,0.0,0.0,-0.0,0.0,0.0,0.0,0.0,0.0
0.0,-62.92606187729451,0.0,0.0,0.0,0.0,62.92606187729451,0.0,0.0,0.0,0.0,0.0
0.0,-75.51127425275341,0.0,0.0,0.0,0.0,88.09648662821232,0.0,0.0,0.0,0.0,0.0
0.0,-75.51127425275341,0.0,0.0,0.0,0.0,100.68169900367121,0.0,0.0,0.0,0.0,0.0
0.0,-75.51127425275341,0.0,0.0,0.0,0.0,100.68169900367121,0.0,0.0,0.0,0.0,0.0
0.0,-62.92606187729451,0.0,0.0,0.0,0.0,113.26691137913011,0.0,0.0,0.0,0.0,0.0
0.0,-62.92606187729451,0.0,0.0,0.0,0.0,125.85212375458902,0.0,0.0,0.0,0.0,0.0
0.0,-62.92606187729451,0.0,0.0,0.0,0.0,125.85212375458902,0.0,0.0,0.0,0.0,0.0
0.0,-62.92606187729451,0.0,0.0,0.0,0.0,125.85212375458902,0.0,0.0,0.0,0.0,0.0
0.0,-62.92606187729451,0.0,0.0,0.0,0.0,138.43733613004792,0.0,0.0,0.0,0.0,0.0
0.0,-62.92606187729451,0.0,0.0,0.0,0.0,138.43733613004792,0.0,0.0,0.0,0.0,0.0
0.0,-50.340849501835606,0.0,0.0,0.0,0.0,138.43733613004792,0.0,0.0,0.0,0.0,0.0
0.0,-50.340849501835606,0.0,0.0,0.0,0.0,138.43733613004792,0.0,0.0,0.0,0.0,0.0
0.0,-50.340849501835606,0.0,0.0,0.0,0.0,138.43733613004792,0.0,0.0,0.0,0.0,0.0
0.0,-62.92606187729451,0.0,0.0,0.0,0.0,138.43733613004792,0.0,0.0,0.0,0.0,0.0
0.0,-62.92606187729451,0.0,0.0,0.0,0.0,151.02254850550682,0.0,0.0,0.0,0.0,0.0
0.0,-62.92606187729451,0.0,0.0,0.0,0.0,151.02254850550682,0.0,0.0,0.0,0.0,0.0
0.0,-62.92606187729451,0.0,0.0,0.0,0.0,151.02254850550682,0.0,0.0,0.0,0.0,0.0
0.0,-62.92606187729451,0.0,0.0,0.0,0.0,151.02254850550682,0.0,0.0,0.0,0.0,0.0
0.0,-62.92606187729451,0.0,0.0,0.0,0.0,151.02254850550682,0.0,0.0,0.0,0.0,0.0
0.0,-62.92606187729451,0.0,0.0,0.0,0.0,163.6077608809657,0.0,0.0,0.0,0.0,0.0
0.0,-75.51127425275341,0.0,0.0,0.0,0.0,163.6077608809657,0.0,0.0,0.0,0.0,0.0
0.0,-75.51127425275341,0.0,0.0,0.0,0.0,176.19297325642464,0.0,0.0,0.0,0.0,0.0
0.0,-75.51127425275341,0.0,0.0,0.0,0.0,176.19297325642464,0.0,0.0,0.0,0.0,0.0
0.0,-88.09648662821232,0.0,0.0,0.0,0.0,176.19297325642464,0.0,0.0,0.0,0.0,0.0
0.0,-88.09648662821232,0.0,0.0,0.0,0.0,188.77818563188353,0.0,0.0,0.0,0.0,0.0
0.0,-100.68169900367121,0.0,0.0,0.0,0.0,188.77818563188353,0.0,0.0,0.0,0.0,0.0
0.0,-113.26691137913011,0.0,0.0,0.0,0.0,188.77818563188353,0.0,0.0,0.0,0.0,0.0
0.0,-113.26691137913011,0.0,0.0,0.0,0.0,201.36339800734243,0.0,0.0,0.0,0.0,0.0
0.0,-125.85212375458902,0.0,0.0,0.0,0.0,213.94861038280132,0.0,0.0,0.0,0.0,0.0
0.0,-125.85212375458902,0.0,0.0,0.0,0.0,213.94861038280132,0.0,0.0,0.0,0.0,0.0
0.0,-138.43733613004792,0.0,0.0,0.0,0.0,226.53382275826021,0.0,0.0,0.0,0.0,0.0
0.0,-151.02254850550682,0.0,0.0,0.0,0.0,239.11903513371914,0.0,0.0,0.0,0.0,0.0
0.0,-163.6077608809657,0.0,0.0,0.0,0.0,251.70424750917803,0.0,0.0,0.0,0.0,0.0
0.0,-163.6077608809657,0.0,0.0,0.0,0.0,264.2894598846369,0.0,0.0,0.0,0.0,0.0
0.0,-176.19297325642464,0.0,0.0,0.0,0.0,276.87467226009585,0.0,0.0,0.0,0.0,0.0
0.0,-176.19297325642464,0.0,0.0,0.0,0.0,289.4598846355547,0.0,0.0,0.0,0.0,0.0
0.0,-188.77818563188353,0.0,0.0,0.0,0.0,302.04509701101364,0.0,0.0,0.0,0.0,0.0
0.0,-188.77818563188353,0.0,0.0,0.0,0.0,314.63030938647256,0.0,0.0,0.0,0.0,0.0
0.0,-176.19297325642464,0.0,0.0,0.0,0.0,314.63030938647256,0.0,0.0,0.0,0.0,0.0
0.0,-163.6077608809657,0.0,0.0,0.0,0.0,327.2155217619314,0.0,0.0,0.0,0.0,0.0
0.0,-151.02254850550682,0.0,0.0,0.0,0.0,339.80073413739035,0.0,0.0,0.0,0.0,0.0
0.0,-138.43733613004792,0.0,0.0,0.0,0.0,339.80073413739035,0.0,0.0,0.0,0.0,0.0
0.0,-113.26691137913011,0.0,0.0,0.0,0.0,352.3859465128493,0.0,0.0,0.0,0.0,0.0
0.0,-88.09648662821232,0.0,0.0,0.0,0.0,352.3859465128493,0.0,0.0,0.0,0.0,0.0
0.0,-62.92606187729451,0.0,0.0,0.0,0.0,339.80073413739035,0.0,0.0,0.0,0.0,0.0
0.0,-37.755637126376705,0.0,0.0,0.0,0.0,327.2155217619314,0.0,0.0,0.0,0.0,0.0
0.0,-25.170424750917803,0.0,0.0,0.0,0.0,314.63030938647256,0.0,0.0,0.0,0.0,0.0
0.0,-0.0,0.0,0.0,0.0,0.0,276.87467226009585,0.0,0.0,0.0,0.0,0.0
0.0,12.585212375458902,0.0,0.0,0.0,0.0,239.11903513371914,0.0,0.0,0.0,0.0,0.0
0.0,25.170424750917803,0.0,0.0,0.0,0.0,213.94861038280132,0.0,0.0,0.0,0.0,0.0
0.0,37.755637126376705,0.0,0.0,0.0,0.0,176.19297325642464,0.0,0.0,0.0,0.0,0.0
0.0,50.340849501835606,0.0,0.0,0.0,0.0,125.85212375458902,0.0,0.0,0.0,0.0,0.0
0.0,62.92606187729451,0.0,0.0,0.0,0.0,88.09648662821232,0.0,0.0,0.0,0.0,0.0
0.0,62.92606187729451,0.0,0.0,0.0,0.0,75.51127425275341,0.0,0.0,0.0,0.0,0.0
0.0,62.92606187729451,0.0,0.0,0.0,0.0,50.340849501835606,0.0,0.0,0.0,0.0,0.0
0.0,62.92606187729451,0.0,0.0,0.0,0.0,25.170424750917803,0.0,0.0,0.0,0.0,0.0
0.0,62.92606187729451,0.0,0.0,0.0,0.0,12.585212375458902,0.0,0.0,0.0,0.0,0.0
0.0,62.92606187729451,0.0,0.0,0.0,0.0,-0.0,0.0,0.0,0.0,0.0,0.0
0.0,62.92606187729451,0.0,0.0,0.0,0.0,-12.585212375458902,0.0,0.0,0.0,0.0,0.0
0.0,62.92606187729451,0.0,0.0,0.0,0.0,-12.585212375458902,0.0,0.0,0.0,0.0,0.0
0.0,62.92606187729451,0.0,0.0,0.0,0.0,-12.585212375458902,0.0,0.0,0.0,0.0,0.0
0.0,62.92606187729451,0.0,0.0,0.0,0.0,-12.585212375458902,0.0,0.0,0.0,0.0,0.0
0.0,62.92606187729451,0.0,0.0,0.0,0.0,-25.170424750917803,0.0,0.0,0.0,0.0,0.0
0.0,62.92606187729451,0.0,0.0,0.0,0.0,-25.170424750917803,0.0,0.0,0.0,0.0,0.0
0.0,62.92606187729451,0.0,0.0,0.0,0.0,-25.170424750917803,0.0,0.0,0.0,0.0,0.0
0.0,62.92606187729451,0.0,0.0,0.0,0.0,-25.170424750917803,0.0,0.0,0.0,0.0,0.0
0.0,62.92606187729451,0.0,0.0,0.0,0.0,-25.170424750917803,0.0,0.0,0.0,0.0,0.0
0.0,62.92606187729451,0.0,0.0,0.0,0.0,-25.170424750917803,0.0,0.0,0.0,0.0,0.0
0.0,62.92606187729451,0.0,0.0,0.0,0.0,-25.170424750917803,0.0,0.0,0.0,0.0,0.0
0.0,62.92606187729451,0.0,0.0,0.0,0.0,-25.170424750917803,0.0,0.0,0.0,0.0,0.0
0.0,50.340849501835606,0.0,0.0,0.0,0.0,-12.585212375458902,0.0,0.0,0.0,0.0,0.0
0.0,50.340849501835606,0.0,0.0,0.0,0.0,-12.585212375458902,0.0,0.0,0.0,0.0,0.0
0.0,37.755637126376705,0.0,0.0,0.0,0.0,-12.585212375458902,0.0,0.0,0.0,0.0,0.0
0.0,37.755637126376705,0.0,0.0,0.0,0.0,-12.585212375458902,0.0,0.0,0.0,0.0,0.0
0.0,25.170424750917803,0.0,0.0,0.0,0.0,-12.585212375458902,0.0,0.0,0.0,0.0,0.0
0.0,25.170424750917803,0.0,0.0,0.0,0.0,-12.585212375458902,0.0,0.0,0.0,0.0,0.0
0.0,12.585212375458902,0.0,0.0,0.0,0.0,-12.585212375458902,0.0,0.0,0.0,0.0,0.0
0.0,-0.0,0.0,0.0,0.0,0.0,-12.585212375458902,0.0,0.0,0.0,0.0,0.0
0.0,-0.0,0.0,0.0,0.0,0.0,-12.585212375458902,0.0,0.0,0.0,0.0,0.0
0.0,-0.0,0.0,0.0,0.0,0.0,-0.0,0.0,0.0,0.0,0.0,0.0
0.0,-0.0,0.0,0.0,0.0,0.0,-0.0,0.0,0.0,0.0,0.0,0.0
0.0,-0.0,0.0,0.0,0.0,0.0,-0.0,0.0,0.0,0.0,0.0,0.0
0.0,-0.0,0.0,0.0,0.0,0.0,-0.0,0.0,0.0,0.0,0.0,0.0
0.0,-12.585212375458902,0.0,0.0,0.0,0.0,-0.0,0.0,0.0,0.0,0.0,0.0
0.0,-12.585212375458902,0.0,0.0,0.0,0.0,-0.0,0.0,0.0,0.0,0.0,0.0
0.0,-0.0,0.0,0.0,0.0,0.0,-0.0,0.0,0.0,0.0,0.0,0.0
0.0,-0.0,0.0,0.0,0.0,0.0,12.585212375458902,0.0,0.0,0.0,0.0,0.0
0.0,-0.0,0.0,0.0,0.0,0.0,12.585212375458902,0.0,0.0,0.0,0.0,0.0
0.0,-0.0,0.0,0.0,0.0,0.0,12.585212375458902,0.0,0.0,0.0,0.0,0.0
0.0,-0.0,0.0,0.0,0.0,0.0,12.585212375458902,0.0,0.0,0.0,0.0,0.0
0.0,-0.0,0.0,0.0,0.0,0.0,-0.0,0.0,0.0,0.0,0.0,0.0
0.0,-0.0,0.0,0.0,0.0,0.0,-0.0,0.0,0.0,0.0,0.0,0.0
0.0,-0.0,0.0,0.0,0.0,0.0,-0.0,0.0,0.0,0.0,0.0,0.0
0.0,-0.0,0.0,0.0,0.0,0.0,-0.0,0.0,0.0,0.0,0.0,0.0
0.0,-0.0,0.0,0.0,0.0,0.0,-12.585212375458902,0.0,0.0,0.0,0.0,0.0
0.0,-12.585212375458902,0.0,0.0,0.0,0.0,-12.585212375458902,0.0,0.0,0.0,0.0,0.0
0.0,-50.340849501835606,0.0,0.0,0.0,0.0,-12.585212375458902,0.0,0.0,0.0,0.0,0.0
0.0,-125.85212375458902,0.0,0.0,0.0,0.0,-12.585212375458902,0.0,0.0,0.0,0.0,0.0
0.0,-226.53382275826021,0.0,0.0,0.0,0.0,-12.585212375458902,0.0,0.0,0.0,0.0,0.0
0.0,-339.80073413739035,0.0,0.0,0.0,0.0,12.585212375458902,0.0,0.0,0.0,0.0,0.0
0.0,-465.65285789197935,0.0,0.0,0.0,0.0,37.755637126376705,0.0,0.0,0.0,0.0,0.0
0.0,-578.9197692711094,0.0,0.0,0.0,0.0,88.09648662821232,0.0,0.0,0.0,0.0,0.0
0.0,-679.6014682747807,0.0,0.0,0.0,0.0,188.77818563188353,0.0,0.0,0.0,0.0,0.0
0.0,-729.9423177766163,0.0,0.0,0.0,0.0,302.04509701101364,0.0,0.0,0.0,0.0,0.0
0.0,-767.697954902993,0.0,0.0,0.0,0.0,427.89722076560264,0.0,0.0,0.0,0.0,0.0
0.0,-868.3796539066642,0.0,0.0,0.0,0.0,553.7493445201917,0.0,0.0,0.0,0.0,0.0
0.0,-855.7944415312053,0.0,0.0,0.0,0.0,641.8458311484039,0.0,0.0,0.0,0.0,0.0
0.0,-843.2092291557464,0.0,0.0,0.0,0.0,632.0573326341581,0.0,0.0,0.0,0.0,0.0
0.0,-830.6240167802875,0.0,0.0,0.0,0.0,622.2688341199123,0.0,0.0,0.0,0.0,0.0
0.0,-818.0388044048286,0.0,0.0,0.0,0.0,612.4803356056665,0.0,0.0,0.0,0.0,0.0
0.0,-805.4535920293697,0.0,0.0,0.0,0.0,602.6918370914207,0.0,0.0,0.0,0.0,0.0
0.0,-792.8683796539108,0.0,0.0,0.0,0.0,592.903338577175,0.0,0.0,0.0,0.0,0.0
0.0,-780.2831672784519,0.0,0.0,0.0,0.0,583.1148400629291,0.0,0.0,0.0,0.0,0.0
0.0,-767.697954902993,0.0,0.0,0.0,0.0,573.3263415486833,0.0,0.0,0.0,0.0,0.0
0.0,-755.1127425275341,0.0,0.0,0.0,0.0,563.5378430344375,0.0,0.0,0.0,0.0,0.0
0.0,-742.5275301520752,0.0,0.0,0.0,0.0,553.7493445201917,0.0,0.0,0.0,0.0,0.0
0.0,-729.9423177766163,0.0,0.0,0.0,0.0,289.4598846355547,0.0,0.0,0.0,0.0,0.0
0.0,-528.5789197692739,0.0,0.0,0.0,0.0,50.340849501835606,0.0,0.0,0.0,0.0,0.0
0.0,-440.48243314106156,0.0,0.0,0.0,0.0,-50.340849501835606,0.0,0.0,0.0,0.0,0.0
0.0,-440.48243314106156,0.0,0.0,0.0,0.0,-62.92606187729451,0.0,0.0,0.0,0.0,0.0
0.0,-465.65285789197935,0.0,0.0,0.0,0.0,188.77818563188353,0.0,0.0,0.0,0.0,0.0
0.0,-427.89722076560264,0.0,0.0,0.0,0.0,528.5789197692739,0.0,0.0,0.0,0.0,0.0
0.0,-302.04509701101364,0.0,0.0,0.0,0.0,520.1887781856345,0.0,0.0,0.0,0.0,0.0
0.0,-151.02254850550682,0.0,0.0,0.0,0.0,511.7986366019953,0.0,0.0,0.0,0.0,0.0
0.0,-25.170424750917803,0.0,0.0,0.0,0.0,503.40849501835606,0.0,0.0,0.0,0.0,0.0
0.0,62.92606187729451,0.0,0.0,0.0,0.0,495.0183534347168,0.0,0.0,0.0,0.0,0.0
0.0,138.43733613004792,0.0,0.0,0.0,0.0,486.6282118510775,0.0,0.0,0.0,0.0,0.0
0.0,176.19297325642464,0.0,0.0,0.0,0.0,478.2380702674383,0.0,0.0,0.0,0.0,0.0
0.0,188.77818563188353,0.0,0.0,0.0,0.0,201.36339800734243,0.0,0.0,0.0,0.0,0.0
0.0,188.77818563188353,0.0,0.0,0.0,0.0,50.340849501835606,0.0,0.0,0.0,0.0,0.0
0.0,201.36339800734243,0.0,0.0,0.0,0.0,-37.755637126376705,0.0,0.0,0.0,0.0,0.0
0.0,213.94861038280132,0.0,0.0,0.0,0.0,-88.09648662821232,0.0,0.0,0.0,0.0,0.0
0.0,226.53382275826021,0.0,0.0,0.0,0.0,-113.26691137913011,0.0,0.0,0.0,0.0,0.0
0.0,239.11903513371914,0.0,0.0,0.0,0.0,-138.43733613004792,0.0,0.0,0.0,0.0,0.0
0.0,251.70424750917803,0.0,0.0,0.0,0.0,-163.6077608809657,0.0,0.0,0.0,0.0,0.0
0.0,264.2894598846369,0.0,0.0,0.0,0.0,-176.19297325642464,0.0,0.0,0.0,0.0,0.0
0.0,264.2894598846369,0.0,0.0,0.0,0.0,-188.77818563188353,0.0,0.0,0.0,0.0,0.0
0.0,276.87467226009585,0.0,0.0,0.0,0.0,-188.77818563188353,0.0,0.0,0.0,0.0,0.0
0.0,289.4598846355547,0.0,0.0,0.0,0.0,-188.77818563188353,0.0,0.0,0.0,0.0,0.0
0.0,314.63030938647256,0.0,0.0,0.0,0.0,-201.36339800734243,0.0,0.0,0.0,0.0,0.0
0.0,327.2155217619314,0.0,0.0,0.0,0.0,-213.94861038280132,0.0,0.0,0.0,0.0,0.0
0.0,339.80073413739035,0.0,0.0,0.0,0.0,-213.94861038280132,0.0,0.0,0.0,0.0,0.0
0.0,364.97115888830814,0.0,0.0,0.0,0.0,-226.53382275826021,0.0,0.0,0.0,0.0,0.0
0.0,390.1415836392259,0.0,0.0,0.0,0.0,-226.53382275826021,0.0,0.0,0.0,0.0,0.0
0.0,415.3120083901438,0.0,0.0,0.0,0.0,-226.53382275826021,0.0,0.0,0.0,0.0,0.0
0.0,440.48243314106156,0.0,0.0,0.0,0.0,-239.11903513371914,0.0,0.0,0.0,0.0,0.0
0.0,465.65285789197935,0.0,0.0,0.0,0.0,-251.70424750917803,0.0,0.0,0.0,0.0,0.0
0.0,503.40849501835606,0.0,0.0,0.0,0.0,-276.87467226009585,0.0,0.0,0.0,0.0,0.0
0.0,541.1641321447328,0.0,0.0,0.0,0.0,-289.4598846355547,0.0,0.0,0.0,0.0,0.0
0.0,566.3345568956506,0.0,0.0,0.0,0.0,-302.04509701101364,0.0,0.0,0.0,0.0,0.0
0.0,616.6754063974862,0.0,0.0,0.0,0.0,-327.2155217619314,0.0,0.0,0.0,0.0,0.0
0.0,667.0162558993218,0.0,0.0,0.0,0.0,-339.80073413739035,0.0,0.0,0.0,0.0,0.0
0.0,704.7718930256985,0.0,0.0,0.0,0.0,-364.97115888830814,0.0,0.0,0.0,0.0,0.0
0.0,755.1127425275341,0.0,0.0,0.0,0.0,-390.1415836392259,0.0,0.0,0.0,0.0,0.0
0.0,805.4535920293697,0.0,0.0,0.0,0.0,-415.3120083901438,0.0,0.0,0.0,0.0,0.0
0.0,855.7944415312053,0.0,0.0,0.0,0.0,-440.48243314106156,0.0,0.0,0.0,0.0,0.0
0.0,906.1352910330409,0.0,0.0,0.0,0.0,-478.2380702674383,0.0,0.0,0.0,0.0,0.0
0.0,956.4761405348765,0.0,0.0,0.0,0.0,-503.40849501835606,0.0,0.0,0.0,0.0,0.0
0.0,1006.8169900367121,0.0,0.0,0.0,0.0,-528.5789197692739,0.0,0.0,0.0,0.0,0.0
0.0,1044.5726271630888,0.0,0.0,0.0,0.0,-566.3345568956506,0.0,0.0,0.0,0.0,0.0
0.0,1069.7430519140066,0.0,0.0,0.0,0.0,-604.0901940220273,0.0,0.0,0.0,0.0,0.0
0.0,1094.9134766649245,0.0,0.0,0.0,0.0,-629.2606187729451,0.0,0.0,0.0,0.0,0.0
0.0,1120.0839014158423,0.0,0.0,0.0,0.0,-667.0162558993218,0.0,0.0,0.0,0.0,0.0
0.0,1132.6691137913012,0.0,0.0,0.0,0.0,-704.7718930256985,0.0,0.0,0.0,0.0,0.0
0.0,1120.0839014158423,0.0,0.0,0.0,0.0,-729.9423177766163,0.0,0.0,0.0,0.0,0.0
0.0,1082.3282642894656,0.0,0.0,0.0,0.0,-742.5275301520752,0.0,0.0,0.0,0.0,0.0
0.0,1044.5726271630888,0.0,0.0,0.0,0.0,-755.1127425275341,0.0,0.0,0.0,0.0,0.0
0.0,981.6465652857943,0.0,0.0,0.0,0.0,-755.1127425275341,0.0,0.0,0.0,0.0,0.0
0.0,906.1352910330409,0.0,0.0,0.0,0.0,-755.1127425275341,0.0,0.0,0.0,0.0,0.0
0.0,830.6240167802875,0.0,0.0,0.0,0.0,-755.1127425275341,0.0,0.0,0.0,0.0,0.0
0.0,717.3571054011574,0.0,0.0,0.0,0.0,-729.9423177766163,0.0,0.0,0.0,0.0,0.0
0.0,616.6754063974862,0.0,0.0,0.0,0.0,-704.7718930256985,0.0,0.0,0.0,0.0,0.0
0.0,515.9937073938149,0.0,0.0,0.0,0.0,-667.0162558993218,0.0,0.0,0.0,0.0,0.0
0.0,427.89722076560264,0.0,0.0,0.0,0.0,-616.6754063974862,0.0,0.0,0.0,0.0,0.0
0.0,339.80073413739035,0.0,0.0,0.0,0.0,-541.1641321447328,0.0,0.0,0.0,0.0,0.0
0.0,276.87467226009585,0.0,0.0,0.0,0.0,-478.2380702674383,0.0,0.0,0.0,0.0,0.0
0.0,213.94861038280132,0.0,0.0,0.0,0.0,-390.1415836392259,0.0,0.0,0.0,0.0,0.0
0.0,163.6077608809657,0.0,0.0,0.0,0.0,-327.2155217619314,0.0,0.0,0.0,0.0,0.0
0.0,113.26691137913011,0.0,0.0,0.0,0.0,-264.2894598846369,0.0,0.0,0.0,0.0,0.0
0.0,75.51127425275341,0.0,0.0,0.0,0.0,-201.36339800734243,0.0,0.0,0.0,0.0,0.0
0.0,50.340849501835606,0.0,0.0,0.0,0.0,-151.02254850550682,0.0,0.0,0.0,0.0,0.0
0.0,37.755637126376705,0.0,0.0,0.0,0.0,-100.68169900367121,0.0,0.0,0.0,0.0,0.0
0.0,25.170424750917803,0.0,0.0,0.0,0.0,-62.92606187729451,0.0,0.0,0.0,0.0,0.0
0.0,12.585212375458902,0.0,0.0,0.0,0.0,-37.755637126376705,0.0,0.0,0.0,0.0,0.0
0.0,12.585212375458902,0.0,0.0,0.0,0.0,-25.170424750917803,0.0,0.0,0.0,0.0,0.0
0.0,12.585212375458902,0.0,0.0,0.0,0.0,-12.585212375458902,0.0,0.0,0.0,0.0,0.0
