nan,138.45185651353125,-100.69225928256819,nan,nan,nan,nan,nan,-125.86532410321024,nan,nan,-201.38451856513637
nan,138.45185651353125,-113.27879169288921,62.93266205160512,-12.586532410321023,nan,nan,125.86532410321024,-90.6230333543114,nan,nan,-32.72498426683459
nan,88.10572687224716,-113.27879169288921,62.93266205160512,-0.0,nan,226.55758338577843,125.86532410321024,-55.38074260541257,nan,nan,135.93455003146718
-12.586532410321023,37.75959723096307,-125.86532410321024,62.93266205160512,12.586532410321023,nan,-100.69225928256819,138.45185651353125,-20.138451856513566,-339.83637507866763,251.73064820642048,304.59408432976863
-12.586532410321023,-12.586532410321023,-138.45185651353125,62.93266205160512,12.586532410321023,-75.51919446192613,-100.69225928256819,151.03838892385227,15.103838892385264,-327.2498426683466,88.10572687224716,473.2536186280704
-12.586532410321023,-62.93266205160512,-151.03838892385227,62.93266205160512,12.586532410321023,-88.10572687224716,-100.69225928256819,151.03838892385227,50.346129641284094,-264.3171806167415,-50.346129641284094,641.9131529263722
-0.0,-62.93266205160512,-163.6249213341733,62.93266205160512,12.586532410321023,-88.10572687224716,-40.90623033354333,151.03838892385227,50.346129641284094,-188.79798615481536,-62.93266205160512,440.52863436123585
-0.0,-62.93266205160512,-176.21145374449432,62.93266205160512,25.173064820642047,-88.10572687224716,18.879798615481533,151.03838892385227,62.93266205160512,-138.45185651353125,-62.93266205160512,226.55758338577843
12.586532410321023,-75.51919446192613,-188.79798615481536,62.93266205160512,25.173064820642047,-100.69225928256819,78.6658275645064,151.03838892385227,62.93266205160512,-125.86532410321024,-75.51919446192613,138.45185651353125
25.173064820642047,-75.51919446192613,-213.9710509754574,50.346129641284094,25.173064820642047,-100.69225928256819,138.45185651353125,151.03838892385227,62.93266205160512,-113.27879169288921,-75.51919446192613,62.93266205160512
50.346129641284094,-62.93266205160512,-239.14411579609944,50.346129641284094,25.173064820642047,-100.69225928256819,138.45185651353125,163.6249213341733,75.51919446192613,-100.69225928256819,-88.10572687224716,37.75959723096307
75.51919446192613,-62.93266205160512,-251.73064820642048,37.75959723096307,25.173064820642047,-100.69225928256819,138.45185651353125,163.6249213341733,75.51919446192613,-113.27879169288921,-88.10572687224716,37.75959723096307
100.69225928256819,-62.93266205160512,-264.3171806167415,37.75959723096307,37.75959723096307,-100.69225928256819,138.45185651353125,163.6249213341733,88.10572687224716,-113.27879169288921,-88.10572687224716,25.173064820642047
113.27879169288921,-62.93266205160512,-276.9037130270625,37.75959723096307,50.346129641284094,-100.69225928256819,138.45185651353125,176.21145374449432,100.69225928256819,-100.69225928256819,-88.10572687224716,12.586532410321023
125.86532410321024,-62.93266205160512,-289.4902454373835,37.75959723096307,50.346129641284094,-100.69225928256819,138.45185651353125,188.79798615481536,100.69225928256819,-100.69225928256819,-100.69225928256819,-0.0
151.03838892385227,-62.93266205160512,-302.07677784770453,25.173064820642047,62.93266205160512,-113.27879169288921,138.45185651353125,201.38451856513637,113.27879169288921,-100.69225928256819,-100.69225928256819,-0.0
163.6249213341733,-50.346129641284094,-289.4902454373835,25.173064820642047,75.51919446192613,-113.27879169288921,125.86532410321024,201.38451856513637,125.86532410321024,-88.10572687224716,-88.10572687224716,12.586532410321023
176.21145374449432,-50.346129641284094,-264.3171806167415,25.173064820642047,88.10572687224716,-113.27879169288921,125.86532410321024,213.9710509754574,125.86532410321024,-88.10572687224716,-88.10572687224716,-0.0
188.79798615481536,-50.346129641284094,-239.14411579609944,12.586532410321023,100.69225928256819,-125.86532410321024,125.86532410321024,226.55758338577843,125.86532410321024,-88.10572687224716,-88.10572687224716,12.586532410321023
201.38451856513637,-50.346129641284094,-213.9710509754574,-0.0,113.27879169288921,-125.86532410321024,113.27879169288921,251.73064820642048,138.45185651353125,-75.51919446192613,-88.10572687224716,25.173064820642047
188.79798615481536,-37.75959723096307,-176.21145374449432,-0.0,125.86532410321024,-138.45185651353125,113.27879169288921,264.3171806167415,138.45185651353125,-75.51919446192613,-88.10572687224716,12.586532410321023
176.21145374449432,-37.75959723096307,-113.27879169288921,-12.586532410321023,151.03838892385227,-138.45185651353125,100.69225928256819,302.07677784770453,151.03838892385227,-75.51919446192613,-88.10572687224716,12.586532410321023
163.6249213341733,-25.173064820642047,-75.51919446192613,-25.173064820642047,176.21145374449432,-151.03838892385227,100.69225928256819,327.2498426683466,176.21145374449432,-75.51919446192613,-88.10572687224716,12.586532410321023
125.86532410321024,-12.586532410321023,-62.93266205160512,-25.173064820642047,188.79798615481536,-163.6249213341733,100.69225928256819,352.42290748898864,188.79798615481536,-75.51919446192613,-100.69225928256819,25.173064820642047
100.69225928256819,-0.0,-50.346129641284094,-37.75959723096307,213.9710509754574,-176.21145374449432,100.69225928256819,390.18250471995174,213.9710509754574,-62.93266205160512,-100.69225928256819,12.586532410321023
62.93266205160512,12.586532410321023,-37.75959723096307,-50.346129641284094,226.55758338577843,-188.79798615481536,88.10572687224716,427.9421019509148,226.55758338577843,-75.51919446192613,-100.69225928256819,12.586532410321023
37.75959723096307,25.173064820642047,-25.173064820642047,-50.346129641284094,251.73064820642048,-201.38451856513637,75.51919446192613,478.2882315921989,251.73064820642048,-75.51919446192613,-100.69225928256819,12.586532410321023
12.586532410321023,37.75959723096307,-25.173064820642047,-62.93266205160512,276.9037130270625,-213.9710509754574,62.93266205160512,516.0478288231619,276.9037130270625,-75.51919446192613,-113.27879169288921,12.586532410321023
-0.0,25.173064820642047,-25.173064820642047,-62.93266205160512,276.9037130270625,-226.55758338577843,62.93266205160512,566.3939584644461,302.07677784770453,-62.93266205160512,-113.27879169288921,12.586532410321023
-12.586532410321023,25.173064820642047,-25.173064820642047,-62.93266205160512,276.9037130270625,-226.55758338577843,50.346129641284094,604.1535556954091,327.2498426683466,-62.93266205160512,-113.27879169288921,12.586532410321023
-25.173064820642047,25.173064820642047,-25.173064820642047,-75.51919446192613,264.3171806167415,-239.14411579609944,50.346129641284094,629.3266205160512,352.42290748898864,-50.346129641284094,-113.27879169288921,-0.0
-37.75959723096307,12.586532410321023,-37.75959723096307,-75.51919446192613,251.73064820642048,-251.73064820642048,50.346129641284094,667.0862177470142,377.5959723096307,-62.93266205160512,-113.27879169288921,-0.0
-50.346129641284094,12.586532410321023,-37.75959723096307,-75.51919446192613,239.14411579609944,-239.14411579609944,50.346129641284094,679.6727501573353,402.76903713027275,-62.93266205160512,-113.27879169288921,-0.0
-50.346129641284094,-0.0,-37.75959723096307,-75.51919446192613,201.38451856513637,-226.55758338577843,50.346129641284094,692.2592825676563,427.9421019509148,-50.346129641284094,-125.86532410321024,-0.0
-50.346129641284094,-25.173064820642047,-37.75959723096307,-75.51919446192613,163.6249213341733,-213.9710509754574,50.346129641284094,679.6727501573353,453.11516677155686,-50.346129641284094,-125.86532410321024,-0.0
-50.346129641284094,-25.173064820642047,-37.75959723096307,-62.93266205160512,125.86532410321024,-188.79798615481536,50.346129641284094,654.4996853366932,465.70169918187787,-50.346129641284094,-125.86532410321024,-0.0
-62.93266205160512,-37.75959723096307,-50.346129641284094,-62.93266205160512,88.10572687224716,-163.6249213341733,62.93266205160512,604.1535556954091,478.2882315921989,-37.75959723096307,-138.45185651353125,-12.586532410321023
-62.93266205160512,-37.75959723096307,-62.93266205160512,-50.346129641284094,62.93266205160512,-125.86532410321024,62.93266205160512,516.0478288231619,478.2882315921989,-37.75959723096307,-151.03838892385227,-12.586532410321023
-62.93266205160512,-37.75959723096307,-62.93266205160512,-37.75959723096307,37.75959723096307,-88.10572687224716,62.93266205160512,427.9421019509148,465.70169918187787,-37.75959723096307,-163.6249213341733,-25.173064820642047
-62.93266205160512,-37.75959723096307,-62.93266205160512,-25.173064820642047,12.586532410321023,-62.93266205160512,75.51919446192613,327.2498426683466,465.70169918187787,-37.75959723096307,-163.6249213341733,-25.173064820642047
-62.93266205160512,-50.346129641284094,-50.346129641284094,-25.173064820642047,12.586532410321023,-50.346129641284094,75.51919446192613,239.14411579609944,440.52863436123585,-37.75959723096307,-163.6249213341733,-37.75959723096307
-62.93266205160512,-50.346129641284094,-62.93266205160512,-25.173064820642047,-0.0,-25.173064820642047,88.10572687224716,163.6249213341733,377.5959723096307,-50.346129641284094,-188.79798615481536,-37.75959723096307
-62.93266205160512,-62.93266205160512,-75.51919446192613,-12.586532410321023,-12.586532410321023,-12.586532410321023,88.10572687224716,113.27879169288921,314.6633102580256,-50.346129641284094,-201.38451856513637,-50.346129641284094
-62.93266205160512,-62.93266205160512,-75.51919446192613,-0.0,-12.586532410321023,-12.586532410321023,88.10572687224716,75.51919446192613,239.14411579609944,-50.346129641284094,-213.9710509754574,-62.93266205160512
-62.93266205160512,-62.93266205160512,-75.51919446192613,-0.0,-12.586532410321023,-12.586532410321023,88.10572687224716,50.346129641284094,176.21145374449432,-50.346129641284094,-239.14411579609944,-88.10572687224716
-75.51919446192613,-62.93266205160512,-75.51919446192613,-0.0,-25.173064820642047,-0.0,88.10572687224716,25.173064820642047,113.27879169288921,-62.93266205160512,-251.73064820642048,-100.69225928256819
-75.51919446192613,-75.51919446192613,-75.51919446192613,-0.0,-25.173064820642047,-12.586532410321023,100.69225928256819,25.173064820642047,75.51919446192613,-62.93266205160512,-276.9037130270625,-113.27879169288921
-75.51919446192613,-88.10572687224716,-75.51919446192613,-0.0,-25.173064820642047,-12.586532410321023,100.69225928256819,12.586532410321023,50.346129641284094,-75.51919446192613,-289.4902454373835,-138.45185651353125
-75.51919446192613,-88.10572687224716,-88.10572687224716,-0.0,-25.173064820642047,-12.586532410321023,100.69225928256819,-0.0,25.173064820642047,-88.10572687224716,-314.6633102580256,-151.03838892385227
-75.51919446192613,-88.10572687224716,-88.10572687224716,-0.0,-25.173064820642047,-0.0,100.69225928256819,-0.0,12.586532410321023,-100.69225928256819,-314.6633102580256,-163.6249213341733
-88.10572687224716,-100.69225928256819,-88.10572687224716,12.586532410321023,-25.173064820642047,-0.0,100.69225928256819,-0.0,-0.0,-100.69225928256819,-314.6633102580256,-163.6249213341733
-88.10572687224716,-100.69225928256819,-75.51919446192613,12.586532410321023,-25.173064820642047,-0.0,113.27879169288921,-0.0,-12.586532410321023,-113.27879169288921,-314.6633102580256,-163.6249213341733
-75.51919446192613,-113.27879169288921,-62.93266205160512,12.586532410321023,-25.173064820642047,-0.0,125.86532410321024,-0.0,-12.586532410321023,-125.86532410321024,-302.07677784770453,-163.6249213341733
-75.51919446192613,-113.27879169288921,-50.346129641284094,12.586532410321023,-25.173064820642047,-0.0,125.86532410321024,-0.0,-12.586532410321023,-113.27879169288921,-276.9037130270625,-151.03838892385227
-62.93266205160512,-113.27879169288921,-50.346129641284094,12.586532410321023,-25.173064820642047,-0.0,125.86532410321024,-0.0,-12.586532410321023,-100.69225928256819,-226.55758338577843,-138.45185651353125
-62.93266205160512,-113.27879169288921,-50.346129641284094,12.586532410321023,-25.173064820642047,-12.586532410321023,138.45185651353125,-0.0,-12.586532410321023,-100.69225928256819,-188.79798615481536,-100.69225928256819
-62.93266205160512,-88.10572687224716,-50.346129641284094,12.586532410321023,-25.173064820642047,-25.173064820642047,138.45185651353125,-0.0,-12.586532410321023,-88.10572687224716,-138.45185651353125,-75.51919446192613
-50.346129641284094,-75.51919446192613,-50.346129641284094,12.586532410321023,-25.173064820642047,-12.586532410321023,138.45185651353125,-0.0,-12.586532410321023,-62.93266205160512,-100.69225928256819,-12.586532410321023
-37.75959723096307,-62.93266205160512,-37.75959723096307,12.586532410321023,-25.173064820642047,-12.586532410321023,138.45185651353125,12.586532410321023,-12.586532410321023,-50.346129641284094,-62.93266205160512,25.173064820642047
-37.75959723096307,-50.346129641284094,-12.586532410321023,12.586532410321023,-25.173064820642047,-12.586532410321023,138.45185651353125,12.586532410321023,-12.586532410321023,-37.75959723096307,-25.173064820642047,62.93266205160512
-25.173064820642047,-37.75959723096307,-0.0,12.586532410321023,-37.75959723096307,-12.586532410321023,138.45185651353125,12.586532410321023,-0.0,-37.75959723096307,-12.586532410321023,88.10572687224716
-0.0,-25.173064820642047,12.586532410321023,12.586532410321023,-37.75959723096307,-12.586532410321023,138.45185651353125,25.173064820642047,-0.0,-25.173064820642047,-12.586532410321023,100.69225928256819
25.173064820642047,-12.586532410321023,-0.0,-0.0,-37.75959723096307,-12.586532410321023,151.03838892385227,25.173064820642047,12.586532410321023,-12.586532410321023,-0.0,113.27879169288921
37.75959723096307,25.173064820642047,-0.0,-12.586532410321023,-25.173064820642047,-12.586532410321023,151.03838892385227,25.173064820642047,12.586532410321023,-12.586532410321023,-0.0,125.86532410321024
37.75959723096307,62.93266205160512,-0.0,-12.586532410321023,-25.173064820642047,-0.0,151.03838892385227,37.75959723096307,25.173064820642047,-12.586532410321023,12.586532410321023,138.45185651353125
50.346129641284094,88.10572687224716,-0.0,-25.173064820642047,-25.173064820642047,-0.0,138.45185651353125,37.75959723096307,25.173064820642047,-12.586532410321023,-0.0,138.45185651353125
62.93266205160512,100.69225928256819,-0.0,-37.75959723096307,-25.173064820642047,-0.0,125.86532410321024,37.75959723096307,37.75959723096307,-12.586532410321023,-0.0,151.03838892385227
50.346129641284094,100.69225928256819,12.586532410321023,-50.346129641284094,-25.173064820642047,12.586532410321023,100.69225928256819,37.75959723096307,37.75959723096307,-25.173064820642047,-0.0,138.45185651353125
37.75959723096307,100.69225928256819,12.586532410321023,-62.93266205160512,-12.586532410321023,25.173064820642047,75.51919446192613,37.75959723096307,37.75959723096307,-25.173064820642047,-0.0,138.45185651353125
25.173064820642047,100.69225928256819,25.173064820642047,-75.51919446192613,-0.0,25.173064820642047,50.346129641284094,50.346129641284094,50.346129641284094,-25.173064820642047,-0.0,138.45185651353125
12.586532410321023,88.10572687224716,12.586532410321023,-100.69225928256819,-0.0,37.75959723096307,25.173064820642047,62.93266205160512,50.346129641284094,-25.173064820642047,-0.0,151.03838892385227
-0.0,88.10572687224716,-0.0,-113.27879169288921,-0.0,37.75959723096307,12.586532410321023,62.93266205160512,50.346129641284094,-25.173064820642047,-0.0,138.45185651353125
-12.586532410321023,88.10572687224716,12.586532410321023,-113.27879169288921,-0.0,50.346129641284094,12.586532410321023,75.51919446192613,62.93266205160512,-25.173064820642047,-0.0,138.45185651353125
-37.75959723096307,75.51919446192613,12.586532410321023,-113.27879169288921,12.586532410321023,75.51919446192613,12.586532410321023,75.51919446192613,75.51919446192613,-25.173064820642047,-0.0,138.45185651353125
-50.346129641284094,62.93266205160512,12.586532410321023,-113.27879169288921,25.173064820642047,75.51919446192613,12.586532410321023,75.51919446192613,88.10572687224716,-25.173064820642047,-0.0,125.86532410321024
-62.93266205160512,37.75959723096307,25.173064820642047,-100.69225928256819,25.173064820642047,75.51919446192613,12.586532410321023,75.51919446192613,88.10572687224716,-25.173064820642047,-0.0,125.86532410321024
-88.10572687224716,25.173064820642047,37.75959723096307,-88.10572687224716,25.173064820642047,62.93266205160512,12.586532410321023,62.93266205160512,100.69225928256819,-25.173064820642047,-12.586532410321023,125.86532410321024
-88.10572687224716,-0.0,37.75959723096307,-88.10572687224716,25.173064820642047,50.346129641284094,25.173064820642047,50.346129641284094,113.27879169288921,-25.173064820642047,-12.586532410321023,125.86532410321024
-88.10572687224716,-12.586532410321023,25.173064820642047,-62.93266205160512,12.586532410321023,37.75959723096307,25.173064820642047,37.75959723096307,113.27879169288921,-25.173064820642047,-25.173064820642047,125.86532410321024
-88.10572687224716,-12.586532410321023,25.173064820642047,-37.75959723096307,12.586532410321023,37.75959723096307,25.173064820642047,25.173064820642047,125.86532410321024,-25.173064820642047,-25.173064820642047,113.27879169288921
-88.10572687224716,-0.0,25.173064820642047,-25.173064820642047,-0.0,37.75959723096307,37.75959723096307,25.173064820642047,125.86532410321024,-25.173064820642047,-25.173064820642047,113.27879169288921
-100.69225928256819,-0.0,25.173064820642047,-12.586532410321023,12.586532410321023,25.173064820642047,50.346129641284094,37.75959723096307,125.86532410321024,-25.173064820642047,-25.173064820642047,113.27879169288921
-100.69225928256819,-0.0,12.586532410321023,12.586532410321023,12.586532410321023,12.586532410321023,62.93266205160512,25.173064820642047,113.27879169288921,-25.173064820642047,-37.75959723096307,100.69225928256819
-100.69225928256819,-12.586532410321023,-0.0,25.173064820642047,-0.0,-12.586532410321023,50.346129641284094,12.586532410321023,88.10572687224716,-25.173064820642047,-37.75959723096307,88.10572687224716
-100.69225928256819,-25.173064820642047,-25.173064820642047,37.75959723096307,-12.586532410321023,-25.173064820642047,62.93266205160512,-0.0,88.10572687224716,-25.173064820642047,-37.75959723096307,88.10572687224716
-75.51919446192613,-25.173064820642047,-12.586532410321023,50.346129641284094,-12.586532410321023,-37.75959723096307,62.93266205160512,-0.0,75.51919446192613,-25.173064820642047,-37.75959723096307,100.69225928256819
-12.586532410321023,-25.173064820642047,176.21145374449432,50.346129641284094,-12.586532410321023,-62.93266205160512,62.93266205160512,-12.586532410321023,50.346129641284094,-25.173064820642047,-37.75959723096307,100.69225928256819
62.93266205160512,-0.0,528.634361233483,50.346129641284094,-12.586532410321023,-62.93266205160512,62.93266205160512,-12.586532410321023,37.75959723096307,-25.173064820642047,-37.75959723096307,100.69225928256819
100.69225928256819,50.346129641284094,969.1629955947188,62.93266205160512,-12.586532410321023,-62.93266205160512,62.93266205160512,-12.586532410321023,37.75959723096307,-12.586532410321023,-25.173064820642047,100.69225928256819
37.75959723096307,100.69225928256819,1308.9993706733865,62.93266205160512,-25.173064820642047,-62.93266205160512,62.93266205160512,-0.0,25.173064820642047,-0.0,-12.586532410321023,100.69225928256819
-88.10572687224716,138.45185651353125,1296.4128382630654,62.93266205160512,-25.173064820642047,-75.51919446192613,75.51919446192613,-0.0,12.586532410321023,12.586532410321023,-12.586532410321023,100.69225928256819
-188.79798615481536,276.9037130270625,956.5764631843978,62.93266205160512,-12.586532410321023,-75.51919446192613,75.51919446192613,-12.586532410321023,-0.0,12.586532410321023,-12.586532410321023,113.27879169288921
-138.45185651353125,503.46129641284097,528.634361233483,50.346129641284094,-25.173064820642047,-75.51919446192613,62.93266205160512,-12.586532410321023,-0.0,12.586532410321023,-0.0,113.27879169288921
113.27879169288921,843.2976714915086,188.79798615481536,-0.0,12.586532410321023,-62.93266205160512,62.93266205160512,-25.173064820642047,-12.586532410321023,25.173064820642047,-0.0,125.86532410321024
402.76903713027275,1220.8936438011392,-12.586532410321023,-62.93266205160512,50.346129641284094,-62.93266205160512,-12.586532410321023,-25.173064820642047,-25.173064820642047,37.75959723096307,12.586532410321023,125.86532410321024
553.807426054125,1422.2781623662756,100.69225928256819,-113.27879169288921,62.93266205160512,-62.93266205160512,-188.79798615481536,-25.173064820642047,-25.173064820642047,50.346129641284094,37.75959723096307,125.86532410321024
453.11516677155686,1422.2781623662756,163.6249213341733,-151.03838892385227,12.586532410321023,-50.346129641284094,-402.76903713027275,-25.173064820642047,-25.173064820642047,62.93266205160512,50.346129641284094,138.45185651353125
251.73064820642048,1120.201384518571,88.10572687224716,-188.79798615481536,-188.79798615481536,-25.173064820642047,-667.0862177470142,-25.173064820642047,-25.173064820642047,62.93266205160512,62.93266205160512,163.6249213341733
-0.0,679.6727501573353,62.93266205160512,-276.9037130270625,-465.70169918187787,12.586532410321023,-981.7495280050398,-25.173064820642047,-25.173064820642047,62.93266205160512,62.93266205160512,176.21145374449432
-151.03838892385227,302.07677784770453,37.75959723096307,-440.52863436123585,-717.4323473882984,113.27879169288921,-1258.6532410321024,25.173064820642047,-25.173064820642047,62.93266205160512,75.51919446192613,188.79798615481536
-176.21145374449432,151.03838892385227,12.586532410321023,-679.6727501573353,-742.6054122089404,352.42290748898864,-1258.6532410321024,163.6249213341733,-25.173064820642047,62.93266205160512,75.51919446192613,188.79798615481536
-163.6249213341733,62.93266205160512,-0.0,-868.4707363121506,-478.2882315921989,704.8458149779773,-1157.960981749534,62.93266205160512,-37.75959723096307,62.93266205160512,88.10572687224716,201.38451856513637
-163.6249213341733,-25.173064820642047,-0.0,-881.0572687224717,-138.45185651353125,1120.201384518571,-868.4707363121506,-402.76903713027275,-37.75959723096307,62.93266205160512,88.10572687224716,213.9710509754574
-151.03838892385227,-50.346129641284094,-0.0,-667.0862177470142,88.10572687224716,1384.5185651353127,-553.807426054125,-1157.960981749534,37.75959723096307,50.346129641284094,88.10572687224716,213.9710509754574
-151.03838892385227,-75.51919446192613,-0.0,-377.5959723096307,176.21145374449432,1321.5859030837075,-302.07677784770453,-1988.6721208307217,188.79798615481536,37.75959723096307,75.51919446192613,201.38451856513637
-138.45185651353125,-88.10572687224716,-12.586532410321023,-138.45185651353125,62.93266205160512,994.3360604153609,-113.27879169288921,-289.4902454373835,125.86532410321024,25.173064820642047,50.346129641284094,201.38451856513637
-138.45185651353125,-88.10572687224716,-12.586532410321023,-0.0,-75.51919446192613,553.807426054125,-12.586532410321023,1409.6916299559546,-327.2498426683466,12.586532410321023,37.75959723096307,188.79798615481536
-138.45185651353125,-88.10572687224716,-0.0,75.51919446192613,-75.51919446192613,188.79798615481536,50.346129641284094,1195.7205789804973,994.3360604153609,-0.0,25.173064820642047,176.21145374449432
-125.86532410321024,-88.10572687224716,-0.0,100.69225928256819,-62.93266205160512,50.346129641284094,88.10572687224716,1095.028319697929,352.42290748898864,-0.0,-0.0,163.6249213341733
-125.86532410321024,-88.10572687224716,-0.0,100.69225928256819,-62.93266205160512,37.75959723096307,100.69225928256819,1246.0667086217813,-327.2498426683466,-12.586532410321023,-0.0,138.45185651353125
-125.86532410321024,-88.10572687224716,-12.586532410321023,100.69225928256819,-50.346129641284094,-37.75959723096307,113.27879169288921,1422.2781623662756,-730.0188797986193,-25.173064820642047,-0.0,125.86532410321024
-125.86532410321024,-75.51919446192613,-12.586532410321023,88.10572687224716,-37.75959723096307,-62.93266205160512,113.27879169288921,-1195.7205789804973,-730.0188797986193,-25.173064820642047,-0.0,113.27879169288921
-125.86532410321024,-75.51919446192613,-12.586532410321023,88.10572687224716,-37.75959723096307,-62.93266205160512,113.27879169288921,-792.9515418502244,-352.42290748898864,-25.173064820642047,-12.586532410321023,113.27879169288921
-113.27879169288921,-75.51919446192613,-12.586532410321023,100.69225928256819,-37.75959723096307,-75.51919446192613,125.86532410321024,-478.2882315921989,151.03838892385227,-25.173064820642047,-12.586532410321023,113.27879169288921
-100.69225928256819,-62.93266205160512,-12.586532410321023,100.69225928256819,-25.173064820642047,-75.51919446192613,125.86532410321024,-276.9037130270625,654.4996853366932,-25.173064820642047,-12.586532410321023,113.27879169288921
-100.69225928256819,-62.93266205160512,-12.586532410321023,88.10572687224716,-25.173064820642047,-88.10572687224716,113.27879169288921,-138.45185651353125,1082.4417872876081,-25.173064820642047,-0.0,113.27879169288921
-113.27879169288921,-62.93266205160512,-25.173064820642047,88.10572687224716,-25.173064820642047,-88.10572687224716,113.27879169288921,-50.346129641284094,-855.8842039018296,-37.75959723096307,-0.0,113.27879169288921
-113.27879169288921,-62.93266205160512,-25.173064820642047,75.51919446192613,-12.586532410321023,-100.69225928256819,113.27879169288921,-0.0,-490.8747640025199,-37.75959723096307,-0.0,113.27879169288921
-100.69225928256819,-62.93266205160512,-25.173064820642047,75.51919446192613,-12.586532410321023,-100.69225928256819,113.27879169288921,25.173064820642047,-276.9037130270625,-12.586532410321023,-12.586532410321023,113.27879169288921
-100.69225928256819,-62.93266205160512,-37.75959723096307,75.51919446192613,-25.173064820642047,-88.10572687224716,125.86532410321024,25.173064820642047,-138.45185651353125,50.346129641284094,12.586532410321023,113.27879169288921
-100.69225928256819,-62.93266205160512,-37.75959723096307,75.51919446192613,-25.173064820642047,-100.69225928256819,113.27879169288921,25.173064820642047,-50.346129641284094,113.27879169288921,62.93266205160512,113.27879169288921
-100.69225928256819,-75.51919446192613,-37.75959723096307,75.51919446192613,-12.586532410321023,-100.69225928256819,113.27879169288921,37.75959723096307,-0.0,188.79798615481536,188.79798615481536,100.69225928256819
-88.10572687224716,-75.51919446192613,-37.75959723096307,75.51919446192613,-12.586532410321023,-88.10572687224716,113.27879169288921,37.75959723096307,12.586532410321023,339.83637507866763,440.52863436123585,125.86532410321024
-88.10572687224716,-75.51919446192613,-50.346129641284094,62.93266205160512,-25.173064820642047,-88.10572687224716,113.27879169288921,37.75959723096307,25.173064820642047,528.634361233483,805.5380742605455,213.9710509754574
-88.10572687224716,-62.93266205160512,-62.93266205160512,62.93266205160512,-12.586532410321023,-88.10572687224716,113.27879169288921,37.75959723096307,37.75959723096307,755.1919446192614,1296.4128382630654,415.35556954059376
-88.10572687224716,-62.93266205160512,-75.51919446192613,62.93266205160512,-12.586532410321023,-88.10572687224716,113.27879169288921,50.346129641284094,50.346129641284094,1019.5091252360029,1913.1529263687955,742.6054122089404
-75.51919446192613,-75.51919446192613,-75.51919446192613,75.51919446192613,-0.0,-88.10572687224716,125.86532410321024,50.346129641284094,50.346129641284094,1233.4801762114603,2466.9603524229206,1195.7205789804973
-75.51919446192613,-75.51919446192613,-75.51919446192613,75.51919446192613,-0.0,-75.51919446192613,125.86532410321024,50.346129641284094,50.346129641284094,1246.0667086217813,2743.864065449983,1711.768407803659
-62.93266205160512,-62.93266205160512,-88.10572687224716,75.51919446192613,-0.0,-88.10572687224716,113.27879169288921,50.346129641284094,50.346129641284094,1145.3744493392132,2617.998741346773,2190.056639395858
-62.93266205160512,-75.51919446192613,-88.10572687224716,75.51919446192613,-0.0,-100.69225928256819,113.27879169288921,62.93266205160512,62.93266205160512,956.5764631843978,2177.470106985537,2441.7872876022784
-50.346129641284094,-75.51919446192613,-100.69225928256819,75.51919446192613,-0.0,-100.69225928256819,113.27879169288921,62.93266205160512,62.93266205160512,516.0478288231619,1409.6916299559546,2366.2680931403524
-37.75959723096307,-75.51919446192613,-125.86532410321024,75.51919446192613,-0.0,-100.69225928256819,113.27879169288921,62.93266205160512,62.93266205160512,-37.75959723096307,704.8458149779773,1976.0855884204007
-37.75959723096307,-62.93266205160512,-125.86532410321024,75.51919446192613,12.586532410321023,-100.69225928256819,113.27879169288921,62.93266205160512,75.51919446192613,-239.14411579609944,264.3171806167415,1447.4512271869178
-25.173064820642047,-62.93266205160512,-138.45185651353125,62.93266205160512,12.586532410321023,-100.69225928256819,113.27879169288921,62.93266205160512,75.51919446192613,-239.14411579609944,37.75959723096307,994.3360604153609
-12.586532410321023,-62.93266205160512,-151.03838892385227,62.93266205160512,12.586532410321023,-113.27879169288921,113.27879169288921,75.51919446192613,88.10572687224716,-163.6249213341733,-37.75959723096307,629.3266205160512
-0.0,-75.51919446192613,-176.21145374449432,62.93266205160512,25.173064820642047,-113.27879169288921,113.27879169288921,75.51919446192613,88.10572687224716,-113.27879169288921,-50.346129641284094,339.83637507866763
12.586532410321023,-75.51919446192613,-201.38451856513637,62.93266205160512,37.75959723096307,-100.69225928256819,113.27879169288921,88.10572687224716,88.10572687224716,-75.51919446192613,-62.93266205160512,176.21145374449432
37.75959723096307,-75.51919446192613,-226.55758338577843,62.93266205160512,37.75959723096307,-113.27879169288921,113.27879169288921,88.10572687224716,100.69225928256819,-62.93266205160512,-62.93266205160512,88.10572687224716
50.346129641284094,-62.93266205160512,-264.3171806167415,62.93266205160512,37.75959723096307,-125.86532410321024,113.27879169288921,100.69225928256819,100.69225928256819,-62.93266205160512,-62.93266205160512,50.346129641284094
75.51919446192613,-62.93266205160512,-289.4902454373835,50.346129641284094,50.346129641284094,-125.86532410321024,113.27879169288921,100.69225928256819,100.69225928256819,-62.93266205160512,-75.51919446192613,37.75959723096307
100.69225928256819,-75.51919446192613,-302.07677784770453,50.346129641284094,62.93266205160512,-125.86532410321024,113.27879169288921,113.27879169288921,113.27879169288921,-50.346129641284094,-75.51919446192613,25.173064820642047
125.86532410321024,-75.51919446192613,-327.2498426683466,37.75959723096307,75.51919446192613,-125.86532410321024,113.27879169288921,125.86532410321024,125.86532410321024,-62.93266205160512,-75.51919446192613,12.586532410321023
138.45185651353125,-75.51919446192613,-327.2498426683466,37.75959723096307,88.10572687224716,-138.45185651353125,113.27879169288921,125.86532410321024,138.45185651353125,-62.93266205160512,-75.51919446192613,-0.0
163.6249213341733,-88.10572687224716,-327.2498426683466,25.173064820642047,100.69225928256819,-138.45185651353125,113.27879169288921,138.45185651353125,138.45185651353125,-62.93266205160512,-75.51919446192613,-0.0
176.21145374449432,-88.10572687224716,-327.2498426683466,12.586532410321023,125.86532410321024,-151.03838892385227,113.27879169288921,163.6249213341733,138.45185651353125,-50.346129641284094,-75.51919446192613,12.586532410321023
188.79798615481536,-88.10572687224716,-314.6633102580256,-0.0,138.45185651353125,-151.03838892385227,113.27879169288921,176.21145374449432,151.03838892385227,-37.75959723096307,-75.51919446192613,-0.0
188.79798615481536,-88.10572687224716,-289.4902454373835,-0.0,163.6249213341733,-163.6249213341733,113.27879169288921,201.38451856513637,163.6249213341733,-37.75959723096307,-75.51919446192613,-0.0
188.79798615481536,-75.51919446192613,-239.14411579609944,-12.586532410321023,188.79798615481536,-163.6249213341733,100.69225928256819,239.14411579609944,176.21145374449432,-37.75959723096307,-75.51919446192613,12.586532410321023
188.79798615481536,-75.51919446192613,-201.38451856513637,-25.173064820642047,201.38451856513637,-176.21145374449432,100.69225928256819,264.3171806167415,188.79798615481536,-25.173064820642047,-75.51919446192613,12.586532410321023
176.21145374449432,-75.51919446192613,-151.03838892385227,-25.173064820642047,213.9710509754574,-188.79798615481536,100.69225928256819,289.4902454373835,201.38451856513637,-25.173064820642047,-75.51919446192613,-0.0
151.03838892385227,-62.93266205160512,-113.27879169288921,-37.75959723096307,226.55758338577843,-201.38451856513637,88.10572687224716,339.83637507866763,226.55758338577843,-25.173064820642047,-75.51919446192613,-0.0
125.86532410321024,-62.93266205160512,-88.10572687224716,-50.346129641284094,251.73064820642048,-226.55758338577843,75.51919446192613,377.5959723096307,239.14411579609944,-25.173064820642047,-75.51919446192613,-0.0
88.10572687224716,-37.75959723096307,-75.51919446192613,-50.346129641284094,264.3171806167415,-226.55758338577843,75.51919446192613,415.35556954059376,264.3171806167415,-25.173064820642047,-75.51919446192613,-0.0
50.346129641284094,-25.173064820642047,-62.93266205160512,-50.346129641284094,264.3171806167415,-226.55758338577843,75.51919446192613,453.11516677155686,289.4902454373835,-25.173064820642047,-75.51919446192613,-0.0
25.173064820642047,-12.586532410321023,-50.346129641284094,-50.346129641284094,264.3171806167415,-239.14411579609944,62.93266205160512,503.46129641284097,314.6633102580256,-25.173064820642047,-75.51919446192613,-0.0
-0.0,-12.586532410321023,-50.346129641284094,-62.93266205160512,251.73064820642048,-251.73064820642048,62.93266205160512,541.2208936438041,339.83637507866763,-25.173064820642047,-75.51919446192613,-0.0
-12.586532410321023,-12.586532410321023,-50.346129641284094,-62.93266205160512,239.14411579609944,-251.73064820642048,62.93266205160512,553.807426054125,365.00943989930965,-25.173064820642047,-88.10572687224716,-12.586532410321023
-25.173064820642047,-0.0,-37.75959723096307,-62.93266205160512,201.38451856513637,-239.14411579609944,50.346129641284094,591.5670232850881,390.18250471995174,-12.586532410321023,-88.10572687224716,-12.586532410321023
-37.75959723096307,-12.586532410321023,-37.75959723096307,-62.93266205160512,151.03838892385227,-226.55758338577843,50.346129641284094,604.1535556954091,440.52863436123585,-12.586532410321023,-75.51919446192613,-12.586532410321023
-50.346129641284094,-25.173064820642047,-37.75959723096307,-50.346129641284094,113.27879169288921,-201.38451856513637,50.346129641284094,604.1535556954091,453.11516677155686,-12.586532410321023,-88.10572687224716,-12.586532410321023
-62.93266205160512,-37.75959723096307,-25.173064820642047,-50.346129641284094,88.10572687224716,-151.03838892385227,50.346129641284094,591.5670232850881,465.70169918187787,-12.586532410321023,-88.10572687224716,-12.586532410321023
-62.93266205160512,-37.75959723096307,-25.173064820642047,-37.75959723096307,50.346129641284094,-113.27879169288921,50.346129641284094,566.3939584644461,478.2882315921989,-12.586532410321023,-88.10572687224716,-25.173064820642047
-75.51919446192613,-37.75959723096307,-25.173064820642047,-25.173064820642047,25.173064820642047,-88.10572687224716,50.346129641284094,490.8747640025199,490.8747640025199,-0.0,-100.69225928256819,-25.173064820642047
-75.51919446192613,-37.75959723096307,-25.173064820642047,-25.173064820642047,-0.0,-62.93266205160512,50.346129641284094,390.18250471995174,490.8747640025199,-0.0,-100.69225928256819,-25.173064820642047
-62.93266205160512,-50.346129641284094,-25.173064820642047,-12.586532410321023,-0.0,-50.346129641284094,50.346129641284094,302.07677784770453,478.2882315921989,-0.0,-100.69225928256819,-25.173064820642047
-75.51919446192613,-50.346129641284094,-25.173064820642047,-12.586532410321023,-12.586532410321023,-25.173064820642047,50.346129641284094,201.38451856513637,465.70169918187787,-0.0,-100.69225928256819,-37.75959723096307
-75.51919446192613,-37.75959723096307,-12.586532410321023,-12.586532410321023,-25.173064820642047,-12.586532410321023,62.93266205160512,125.86532410321024,415.35556954059376,-0.0,-113.27879169288921,-37.75959723096307
-75.51919446192613,-37.75959723096307,-0.0,-0.0,-25.173064820642047,-0.0,62.93266205160512,50.346129641284094,339.83637507866763,-0.0,-138.45185651353125,-37.75959723096307
-75.51919446192613,-37.75959723096307,-0.0,-0.0,-25.173064820642047,-0.0,62.93266205160512,-0.0,289.4902454373835,-0.0,-138.45185651353125,-50.346129641284094
-75.51919446192613,-37.75959723096307,25.173064820642047,-12.586532410321023,-25.173064820642047,-0.0,75.51919446192613,-25.173064820642047,213.9710509754574,-0.0,-151.03838892385227,-62.93266205160512
-75.51919446192613,-37.75959723096307,37.75959723096307,-0.0,-25.173064820642047,-0.0,75.51919446192613,-50.346129641284094,151.03838892385227,-0.0,-163.6249213341733,-88.10572687224716
-88.10572687224716,-25.173064820642047,37.75959723096307,-0.0,-25.173064820642047,-0.0,75.51919446192613,-62.93266205160512,88.10572687224716,-0.0,-176.21145374449432,-100.69225928256819
-88.10572687224716,-25.173064820642047,37.75959723096307,-0.0,-25.173064820642047,-0.0,75.51919446192613,-75.51919446192613,62.93266205160512,-0.0,-201.38451856513637,-113.27879169288921
-88.10572687224716,-25.173064820642047,37.75959723096307,-0.0,-25.173064820642047,-0.0,75.51919446192613,-75.51919446192613,50.346129641284094,-12.586532410321023,-226.55758338577843,-125.86532410321024
-88.10572687224716,-12.586532410321023,37.75959723096307,-0.0,-37.75959723096307,-0.0,75.51919446192613,-75.51919446192613,25.173064820642047,-25.173064820642047,-239.14411579609944,-138.45185651353125
-88.10572687224716,-0.0,25.173064820642047,-0.0,-37.75959723096307,-0.0,62.93266205160512,-88.10572687224716,12.586532410321023,-25.173064820642047,-264.3171806167415,-163.6249213341733
-88.10572687224716,-0.0,37.75959723096307,-0.0,-37.75959723096307,-0.0,62.93266205160512,-88.10572687224716,-0.0,-37.75959723096307,-276.9037130270625,-188.79798615481536
-100.69225928256819,12.586532410321023,50.346129641284094,12.586532410321023,-37.75959723096307,-0.0,75.51919446192613,-88.10572687224716,-0.0,-37.75959723096307,-289.4902454373835,-201.38451856513637
-88.10572687224716,12.586532410321023,37.75959723096307,12.586532410321023,-37.75959723096307,-0.0,62.93266205160512,-88.10572687224716,-0.0,-50.346129641284094,-289.4902454373835,-201.38451856513637
-100.69225928256819,-0.0,37.75959723096307,25.173064820642047,-37.75959723096307,-0.0,62.93266205160512,-75.51919446192613,-0.0,-62.93266205160512,-289.4902454373835,-213.9710509754574
-100.69225928256819,-0.0,50.346129641284094,12.586532410321023,-37.75959723096307,-0.0,75.51919446192613,-75.51919446192613,-0.0,-62.93266205160512,-289.4902454373835,-213.9710509754574
-100.69225928256819,-0.0,50.346129641284094,12.586532410321023,-37.75959723096307,-0.0,75.51919446192613,-75.51919446192613,-0.0,-62.93266205160512,-264.3171806167415,-201.38451856513637
-88.10572687224716,-0.0,50.346129641284094,12.586532410321023,-37.75959723096307,-0.0,75.51919446192613,-75.51919446192613,-0.0,-62.93266205160512,-226.55758338577843,-176.21145374449432
-88.10572687224716,-0.0,62.93266205160512,12.586532410321023,-37.75959723096307,-0.0,75.51919446192613,-75.51919446192613,-0.0,-62.93266205160512,-176.21145374449432,-151.03838892385227
-75.51919446192613,-0.0,50.346129641284094,12.586532410321023,-25.173064820642047,-12.586532410321023,75.51919446192613,-62.93266205160512,-0.0,-50.346129641284094,-113.27879169288921,-113.27879169288921
-75.51919446192613,12.586532410321023,50.346129641284094,12.586532410321023,-25.173064820642047,-12.586532410321023,75.51919446192613,-62.93266205160512,12.586532410321023,-37.75959723096307,-75.51919446192613,-62.93266205160512
-75.51919446192613,25.173064820642047,62.93266205160512,12.586532410321023,-25.173064820642047,-12.586532410321023,75.51919446192613,-62.93266205160512,12.586532410321023,-25.173064820642047,-37.75959723096307,-12.586532410321023
-62.93266205160512,37.75959723096307,75.51919446192613,-0.0,-25.173064820642047,-12.586532410321023,75.51919446192613,-50.346129641284094,12.586532410321023,-12.586532410321023,-0.0,25.173064820642047
-50.346129641284094,37.75959723096307,75.51919446192613,-12.586532410321023,-25.173064820642047,-12.586532410321023,88.10572687224716,-50.346129641284094,25.173064820642047,-0.0,12.586532410321023,50.346129641284094
-25.173064820642047,50.346129641284094,50.346129641284094,-25.173064820642047,-25.173064820642047,-12.586532410321023,100.69225928256819,-50.346129641284094,25.173064820642047,-0.0,25.173064820642047,75.51919446192613
-12.586532410321023,62.93266205160512,37.75959723096307,-25.173064820642047,-25.173064820642047,-12.586532410321023,100.69225928256819,-37.75959723096307,25.173064820642047,12.586532410321023,37.75959723096307,88.10572687224716
-12.586532410321023,88.10572687224716,37.75959723096307,-37.75959723096307,-12.586532410321023,-0.0,100.69225928256819,-37.75959723096307,37.75959723096307,12.586532410321023,37.75959723096307,100.69225928256819
-0.0,113.27879169288921,37.75959723096307,-50.346129641284094,-12.586532410321023,12.586532410321023,100.69225928256819,-25.173064820642047,37.75959723096307,12.586532410321023,50.346129641284094,113.27879169288921
12.586532410321023,113.27879169288921,25.173064820642047,-62.93266205160512,-0.0,25.173064820642047,88.10572687224716,-25.173064820642047,50.346129641284094,-0.0,50.346129641284094,113.27879169288921
25.173064820642047,113.27879169288921,37.75959723096307,-88.10572687224716,-0.0,25.173064820642047,75.51919446192613,-25.173064820642047,50.346129641284094,-0.0,50.346129641284094,125.86532410321024
12.586532410321023,113.27879169288921,37.75959723096307,-100.69225928256819,-0.0,37.75959723096307,50.346129641284094,-25.173064820642047,50.346129641284094,12.586532410321023,50.346129641284094,125.86532410321024
-0.0,113.27879169288921,37.75959723096307,-113.27879169288921,-0.0,50.346129641284094,25.173064820642047,-12.586532410321023,62.93266205160512,12.586532410321023,62.93266205160512,125.86532410321024
-25.173064820642047,100.69225928256819,25.173064820642047,-113.27879169288921,12.586532410321023,62.93266205160512,-0.0,-0.0,62.93266205160512,-0.0,50.346129641284094,125.86532410321024
-50.346129641284094,88.10572687224716,12.586532410321023,-125.86532410321024,25.173064820642047,75.51919446192613,-12.586532410321023,-0.0,62.93266205160512,-0.0,50.346129641284094,125.86532410321024
-62.93266205160512,62.93266205160512,-0.0,-125.86532410321024,25.173064820642047,88.10572687224716,-12.586532410321023,12.586532410321023,75.51919446192613,-0.0,50.346129641284094,113.27879169288921
-75.51919446192613,50.346129641284094,-0.0,-113.27879169288921,25.173064820642047,75.51919446192613,-12.586532410321023,-0.0,88.10572687224716,-0.0,50.346129641284094,113.27879169288921
-88.10572687224716,37.75959723096307,12.586532410321023,-100.69225928256819,12.586532410321023,75.51919446192613,-0.0,-0.0,100.69225928256819,-0.0,50.346129641284094,113.27879169288921
-100.69225928256819,12.586532410321023,12.586532410321023,-88.10572687224716,-0.0,75.51919446192613,-0.0,-0.0,113.27879169288921,-0.0,37.75959723096307,113.27879169288921
-113.27879169288921,-12.586532410321023,12.586532410321023,-62.93266205160512,-0.0,62.93266205160512,12.586532410321023,-12.586532410321023,125.86532410321024,-0.0,37.75959723096307,113.27879169288921
-125.86532410321024,-37.75959723096307,12.586532410321023,-50.346129641284094,-12.586532410321023,50.346129641284094,12.586532410321023,-37.75959723096307,125.86532410321024,-0.0,37.75959723096307,100.69225928256819
-125.86532410321024,-50.346129641284094,12.586532410321023,-37.75959723096307,-12.586532410321023,50.346129641284094,25.173064820642047,-37.75959723096307,125.86532410321024,-0.0,37.75959723096307,100.69225928256819
-125.86532410321024,-62.93266205160512,12.586532410321023,-12.586532410321023,-0.0,37.75959723096307,25.173064820642047,-37.75959723096307,125.86532410321024,-0.0,25.173064820642047,100.69225928256819
-113.27879169288921,-50.346129641284094,12.586532410321023,-0.0,-12.586532410321023,25.173064820642047,37.75959723096307,-37.75959723096307,125.86532410321024,-0.0,25.173064820642047,88.10572687224716
-125.86532410321024,-50.346129641284094,12.586532410321023,12.586532410321023,-12.586532410321023,-0.0,50.346129641284094,-50.346129641284094,125.86532410321024,-0.0,25.173064820642047,88.10572687224716
-125.86532410321024,-50.346129641284094,12.586532410321023,25.173064820642047,-12.586532410321023,-12.586532410321023,62.93266205160512,-50.346129641284094,100.69225928256819,-0.0,25.173064820642047,88.10572687224716
-125.86532410321024,-50.346129641284094,-0.0,25.173064820642047,-25.173064820642047,-25.173064820642047,75.51919446192613,-50.346129641284094,88.10572687224716,-0.0,12.586532410321023,88.10572687224716
-125.86532410321024,-62.93266205160512,-12.586532410321023,25.173064820642047,-25.173064820642047,-25.173064820642047,75.51919446192613,-62.93266205160512,88.10572687224716,-0.0,-0.0,75.51919446192613
-113.27879169288921,-62.93266205160512,-25.173064820642047,25.173064820642047,-25.173064820642047,-37.75959723096307,75.51919446192613,-75.51919446192613,62.93266205160512,-12.586532410321023,-0.0,75.51919446192613
-50.346129641284094,-62.93266205160512,113.27879169288921,37.75959723096307,-25.173064820642047,-37.75959723096307,75.51919446192613,-75.51919446192613,37.75959723096307,-12.586532410321023,12.586532410321023,75.51919446192613
12.586532410321023,-50.346129641284094,427.9421019509148,37.75959723096307,-25.173064820642047,-25.173064820642047,75.51919446192613,-62.93266205160512,37.75959723096307,-0.0,-0.0,62.93266205160512
75.51919446192613,-0.0,855.8842039018296,37.75959723096307,-25.173064820642047,-37.75959723096307,75.51919446192613,-62.93266205160512,37.75959723096307,-0.0,-0.0,62.93266205160512
62.93266205160512,62.93266205160512,1246.0667086217813,37.75959723096307,-25.173064820642047,-37.75959723096307,75.51919446192613,-62.93266205160512,25.173064820642047,-0.0,12.586532410321023,62.93266205160512
-37.75959723096307,113.27879169288921,1346.7589679043494,-0.0,-12.586532410321023,-25.173064820642047,88.10572687224716,-62.93266205160512,-0.0,-0.0,12.586532410321023,62.93266205160512
-151.03838892385227,226.55758338577843,1032.0956576463238,-62.93266205160512,25.173064820642047,-25.173064820642047,88.10572687224716,-62.93266205160512,-0.0,12.586532410321023,25.173064820642047,62.93266205160512
-125.86532410321024,440.52863436123585,566.3939584644461,-100.69225928256819,37.75959723096307,-25.173064820642047,88.10572687224716,-62.93266205160512,-0.0,25.173064820642047,25.173064820642047,75.51919446192613
75.51919446192613,780.3650094399035,201.38451856513637,-151.03838892385227,12.586532410321023,-12.586532410321023,100.69225928256819,-75.51919446192613,-12.586532410321023,25.173064820642047,37.75959723096307,88.10572687224716
390.18250471995174,1183.1340465701762,-12.586532410321023,-188.79798615481536,-151.03838892385227,12.586532410321023,50.346129641284094,-75.51919446192613,-12.586532410321023,37.75959723096307,37.75959723096307,88.10572687224716
591.5670232850881,1485.2108244178808,75.51919446192613,-251.73064820642048,-427.9421019509148,25.173064820642047,-100.69225928256819,-75.51919446192613,-12.586532410321023,37.75959723096307,50.346129641284094,88.10572687224716
516.0478288231619,1434.8646947765967,151.03838892385227,-415.35556954059376,-692.2592825676563,100.69225928256819,-327.2498426683466,-75.51919446192613,-12.586532410321023,37.75959723096307,50.346129641284094,100.69225928256819
314.6633102580256,1296.4128382630654,100.69225928256819,-654.4996853366932,-792.9515418502244,314.6633102580256,-566.3939584644461,-75.51919446192613,-25.173064820642047,50.346129641284094,75.51919446192613,88.10572687224716
50.346129641284094,767.7784770295824,88.10572687224716,-843.2976714915086,-578.980490874767,641.9131529263722,-893.6438011327926,-12.586532410321023,-25.173064820642047,62.93266205160512,88.10572687224716,100.69225928256819
-138.45185651353125,377.5959723096307,75.51919446192613,-893.6438011327926,-251.73064820642048,1069.855254877287,-1195.7205789804973,113.27879169288921,-25.173064820642047,75.51919446192613,100.69225928256819,125.86532410321024
-176.21145374449432,176.21145374449432,50.346129641284094,-717.4323473882984,12.586532410321023,1397.1050975456335,-1246.0667086217813,37.75959723096307,-25.173064820642047,62.93266205160512,113.27879169288921,151.03838892385227
-176.21145374449432,75.51919446192613,25.173064820642047,-427.9421019509148,151.03838892385227,1397.1050975456335,-1095.028319697929,-415.35556954059376,-25.173064820642047,75.51919446192613,125.86532410321024,163.6249213341733
-188.79798615481536,-12.586532410321023,25.173064820642047,-163.6249213341733,113.27879169288921,1107.61485210825,-943.9899307740768,-1145.3744493392132,37.75959723096307,88.10572687224716,125.86532410321024,163.6249213341733
-176.21145374449432,-37.75959723096307,25.173064820642047,-12.586532410321023,-25.173064820642047,667.0862177470142,-629.3266205160512,-1976.0855884204007,201.38451856513637,88.10572687224716,125.86532410321024,176.21145374449432
-163.6249213341733,-50.346129641284094,12.586532410321023,62.93266205160512,-62.93266205160512,239.14411579609944,-339.83637507866763,-295.78351164254406,163.6249213341733,88.10572687224716,125.86532410321024,176.21145374449432
-163.6249213341733,-75.51919446192613,-0.0,88.10572687224716,-37.75959723096307,12.586532410321023,-125.86532410321024,1384.5185651353127,-264.3171806167415,75.51919446192613,125.86532410321024,176.21145374449432
-151.03838892385227,-88.10572687224716,-0.0,100.69225928256819,-62.93266205160512,12.586532410321023,-0.0,1132.7879169288922,1006.9225928256819,62.93266205160512,125.86532410321024,176.21145374449432
-163.6249213341733,-75.51919446192613,-12.586532410321023,88.10572687224716,-37.75959723096307,-37.75959723096307,75.51919446192613,1019.5091252360029,365.00943989930965,50.346129641284094,113.27879169288921,176.21145374449432
-151.03838892385227,-75.51919446192613,-12.586532410321023,88.10572687224716,-12.586532410321023,-88.10572687224716,113.27879169288921,1170.5475141598552,-302.07677784770453,37.75959723096307,100.69225928256819,176.21145374449432
-151.03838892385227,-88.10572687224716,-25.173064820642047,75.51919446192613,-12.586532410321023,-75.51919446192613,138.45185651353125,1397.1050975456335,-730.0188797986193,12.586532410321023,75.51919446192613,163.6249213341733
-151.03838892385227,-100.69225928256819,-25.173064820642047,88.10572687224716,-12.586532410321023,-75.51919446192613,151.03838892385227,-1208.3071113908181,-767.7784770295824,-0.0,62.93266205160512,138.45185651353125
-151.03838892385227,-100.69225928256819,-37.75959723096307,88.10572687224716,-12.586532410321023,-100.69225928256819,151.03838892385227,-792.9515418502244,-390.18250471995174,-12.586532410321023,50.346129641284094,125.86532410321024
-151.03838892385227,-113.27879169288921,-37.75959723096307,88.10572687224716,-0.0,-100.69225928256819,151.03838892385227,-490.8747640025199,138.45185651353125,-25.173064820642047,37.75959723096307,113.27879169288921
-151.03838892385227,-113.27879169288921,-37.75959723096307,75.51919446192613,-0.0,-88.10572687224716,163.6249213341733,-302.07677784770453,-1787.2876022655853,-12.586532410321023,37.75959723096307,88.10572687224716
-151.03838892385227,-113.27879169288921,-50.346129641284094,75.51919446192613,-0.0,-100.69225928256819,163.6249213341733,-163.6249213341733,-1308.9993706733865,-25.173064820642047,37.75959723096307,88.10572687224716
-138.45185651353125,-113.27879169288921,-50.346129641284094,75.51919446192613,-0.0,-100.69225928256819,176.21145374449432,-75.51919446192613,-855.8842039018296,-25.173064820642047,25.173064820642047,88.10572687224716
-138.45185651353125,-125.86532410321024,-62.93266205160512,75.51919446192613,-0.0,-100.69225928256819,176.21145374449432,-37.75959723096307,-490.8747640025199,-25.173064820642047,37.75959723096307,88.10572687224716
-138.45185651353125,-125.86532410321024,-62.93266205160512,75.51919446192613,-0.0,-100.69225928256819,176.21145374449432,-0.0,-276.9037130270625,-25.173064820642047,37.75959723096307,88.10572687224716
-125.86532410321024,-125.86532410321024,-62.93266205160512,62.93266205160512,-0.0,-88.10572687224716,188.79798615481536,12.586532410321023,-138.45185651353125,-25.173064820642047,37.75959723096307,88.10572687224716
-125.86532410321024,-125.86532410321024,-62.93266205160512,62.93266205160512,-0.0,-88.10572687224716,188.79798615481536,25.173064820642047,-50.346129641284094,-25.173064820642047,37.75959723096307,88.10572687224716
-125.86532410321024,-125.86532410321024,-62.93266205160512,75.51919446192613,-0.0,-88.10572687224716,188.79798615481536,25.173064820642047,12.586532410321023,-12.586532410321023,37.75959723096307,88.10572687224716
-113.27879169288921,-125.86532410321024,-62.93266205160512,75.51919446192613,-0.0,-88.10572687224716,188.79798615481536,37.75959723096307,25.173064820642047,25.173064820642047,37.75959723096307,88.10572687224716
-113.27879169288921,-125.86532410321024,-75.51919446192613,62.93266205160512,12.586532410321023,-100.69225928256819,188.79798615481536,37.75959723096307,37.75959723096307,88.10572687224716,62.93266205160512,88.10572687224716
-113.27879169288921,-125.86532410321024,-75.51919446192613,62.93266205160512,25.173064820642047,-100.69225928256819,201.38451856513637,37.75959723096307,50.346129641284094,138.45185651353125,138.45185651353125,75.51919446192613
-113.27879169288921,-125.86532410321024,-75.51919446192613,62.93266205160512,25.173064820642047,-100.69225928256819,201.38451856513637,50.346129641284094,50.346129641284094,239.14411579609944,314.6633102580256,75.51919446192613
-100.69225928256819,-125.86532410321024,-75.51919446192613,62.93266205160512,25.173064820642047,-100.69225928256819,201.38451856513637,50.346129641284094,50.346129641284094,402.76903713027275,629.3266205160512,125.86532410321024
-100.69225928256819,-125.86532410321024,-75.51919446192613,62.93266205160512,25.173064820642047,-113.27879169288921,201.38451856513637,50.346129641284094,62.93266205160512,591.5670232850881,1044.682190056645,264.3171806167415
-100.69225928256819,-113.27879169288921,-88.10572687224716,50.346129641284094,25.173064820642047,-113.27879169288921,201.38451856513637,62.93266205160512,62.93266205160512,843.2976714915086,1598.48961611077,528.634361233483
-100.69225928256819,-113.27879169288921,-88.10572687224716,50.346129641284094,25.173064820642047,-113.27879169288921,201.38451856513637,62.93266205160512,62.93266205160512,1107.61485210825,2227.816236626821,906.2303335431137
-88.10572687224716,-113.27879169288921,-100.69225928256819,50.346129641284094,25.173064820642047,-100.69225928256819,201.38451856513637,75.51919446192613,75.51919446192613,1233.4801762114603,2655.758338577736,1397.1050975456335
-75.51919446192613,-100.69225928256819,-100.69225928256819,50.346129641284094,37.75959723096307,-100.69225928256819,201.38451856513637,75.51919446192613,75.51919446192613,1132.7879169288922,2756.4505978603042,1938.3259911894377
-62.93266205160512,-100.69225928256819,-113.27879169288921,50.346129641284094,37.75959723096307,-100.69225928256819,201.38451856513637,88.10572687224716,88.10572687224716,1019.5091252360029,2517.306482064205,2315.921963499068
-50.346129641284094,-100.69225928256819,-125.86532410321024,50.346129641284094,37.75959723096307,-100.69225928256819,201.38451856513637,88.10572687224716,88.10572687224716,755.1919446192614,1925.7394587791166,2466.9603524229206
-37.75959723096307,-88.10572687224716,-151.03838892385227,37.75959723096307,37.75959723096307,-100.69225928256819,201.38451856513637,88.10572687224716,88.10572687224716,226.55758338577843,1120.201384518571,2240.402769037142
-25.173064820642047,-88.10572687224716,-163.6249213341733,37.75959723096307,37.75959723096307,-100.69225928256819,201.38451856513637,100.69225928256819,100.69225928256819,-176.21145374449432,541.2208936438041,1762.1145374449434
-0.0,-75.51919446192613,-176.21145374449432,37.75959723096307,50.346129641284094,-113.27879169288921,201.38451856513637,113.27879169288921,100.69225928256819,-226.55758338577843,201.38451856513637,1246.0667086217813
12.586532410321023,-75.51919446192613,-188.79798615481536,25.173064820642047,62.93266205160512,-113.27879169288921,201.38451856513637,125.86532410321024,113.27879169288921,-201.38451856513637,25.173064820642047,843.2976714915086
37.75959723096307,-75.51919446192613,-213.9710509754574,25.173064820642047,62.93266205160512,-113.27879169288921,201.38451856513637,125.86532410321024,113.27879169288921,-125.86532410321024,-0.0,503.46129641284097
50.346129641284094,-75.51919446192613,-239.14411579609944,12.586532410321023,88.10572687224716,-113.27879169288921,201.38451856513637,125.86532410321024,125.86532410321024,-88.10572687224716,-0.0,239.14411579609944
75.51919446192613,-62.93266205160512,-264.3171806167415,12.586532410321023,100.69225928256819,-113.27879169288921,201.38451856513637,138.45185651353125,125.86532410321024,-62.93266205160512,-12.586532410321023,125.86532410321024
100.69225928256819,-62.93266205160512,-276.9037130270625,12.586532410321023,113.27879169288921,-113.27879169288921,201.38451856513637,151.03838892385227,138.45185651353125,-50.346129641284094,-25.173064820642047,62.93266205160512
113.27879169288921,-62.93266205160512,-314.6633102580256,-0.0,125.86532410321024,-125.86532410321024,201.38451856513637,163.6249213341733,138.45185651353125,-50.346129641284094,-25.173064820642047,25.173064820642047
138.45185651353125,-62.93266205160512,-327.2498426683466,-12.586532410321023,138.45185651353125,-151.03838892385227,201.38451856513637,176.21145374449432,151.03838892385227,-50.346129641284094,-37.75959723096307,25.173064820642047
151.03838892385227,-62.93266205160512,-327.2498426683466,-25.173064820642047,151.03838892385227,-151.03838892385227,201.38451856513637,201.38451856513637,151.03838892385227,-37.75959723096307,-37.75959723096307,12.586532410321023
176.21145374449432,-62.93266205160512,-314.6633102580256,-37.75959723096307,176.21145374449432,-151.03838892385227,201.38451856513637,226.55758338577843,163.6249213341733,-37.75959723096307,-25.173064820642047,12.586532410321023
188.79798615481536,-62.93266205160512,-314.6633102580256,-50.346129641284094,201.38451856513637,-163.6249213341733,201.38451856513637,251.73064820642048,176.21145374449432,-37.75959723096307,-25.173064820642047,-0.0
201.38451856513637,-75.51919446192613,-289.4902454373835,-50.346129641284094,226.55758338577843,-163.6249213341733,201.38451856513637,276.9037130270625,188.79798615481536,-37.75959723096307,-25.173064820642047,12.586532410321023
213.9710509754574,-75.51919446192613,-239.14411579609944,-62.93266205160512,251.73064820642048,-176.21145374449432,201.38451856513637,302.07677784770453,201.38451856513637,-37.75959723096307,-25.173064820642047,12.586532410321023
213.9710509754574,-62.93266205160512,-188.79798615481536,-75.51919446192613,264.3171806167415,-188.79798615481536,201.38451856513637,327.2498426683466,213.9710509754574,-25.173064820642047,-25.173064820642047,-0.0
201.38451856513637,-62.93266205160512,-151.03838892385227,-75.51919446192613,276.9037130270625,-213.9710509754574,201.38451856513637,377.5959723096307,239.14411579609944,-25.173064820642047,-25.173064820642047,-0.0
176.21145374449432,-50.346129641284094,-125.86532410321024,-75.51919446192613,276.9037130270625,-213.9710509754574,188.79798615481536,415.35556954059376,251.73064820642048,-25.173064820642047,-25.173064820642047,12.586532410321023
151.03838892385227,-37.75959723096307,-88.10572687224716,-75.51919446192613,276.9037130270625,-226.55758338577843,188.79798615481536,465.70169918187787,264.3171806167415,-25.173064820642047,-25.173064820642047,-0.0
125.86532410321024,-12.586532410321023,-62.93266205160512,-88.10572687224716,276.9037130270625,-226.55758338577843,176.21145374449432,503.46129641284097,289.4902454373835,-12.586532410321023,-25.173064820642047,-0.0
100.69225928256819,-0.0,-37.75959723096307,-88.10572687224716,264.3171806167415,-226.55758338577843,176.21145374449432,553.807426054125,314.6633102580256,-12.586532410321023,-25.173064820642047,-0.0
75.51919446192613,25.173064820642047,-25.173064820642047,-88.10572687224716,226.55758338577843,-226.55758338577843,176.21145374449432,578.980490874767,339.83637507866763,-12.586532410321023,-25.173064820642047,-0.0
50.346129641284094,37.75959723096307,-12.586532410321023,-88.10572687224716,176.21145374449432,-226.55758338577843,163.6249213341733,616.7400881057301,365.00943989930965,-12.586532410321023,-25.173064820642047,-0.0
25.173064820642047,37.75959723096307,-0.0,-75.51919446192613,138.45185651353125,-213.9710509754574,163.6249213341733,654.4996853366932,390.18250471995174,-0.0,-25.173064820642047,-0.0
25.173064820642047,37.75959723096307,-0.0,-62.93266205160512,100.69225928256819,-176.21145374449432,163.6249213341733,667.0862177470142,440.52863436123585,-12.586532410321023,-25.173064820642047,-0.0
12.586532410321023,50.346129641284094,-0.0,-62.93266205160512,75.51919446192613,-138.45185651353125,151.03838892385227,667.0862177470142,453.11516677155686,-0.0,-25.173064820642047,-0.0
-0.0,50.346129641284094,-0.0,-50.346129641284094,62.93266205160512,-100.69225928256819,151.03838892385227,654.4996853366932,478.2882315921989,-0.0,-25.173064820642047,-0.0
-0.0,50.346129641284094,-0.0,-50.346129641284094,37.75959723096307,-62.93266205160512,151.03838892385227,629.3266205160512,478.2882315921989,-0.0,-25.173064820642047,-0.0
12.586532410321023,50.346129641284094,-0.0,-37.75959723096307,25.173064820642047,-50.346129641284094,151.03838892385227,566.3939584644461,478.2882315921989,-0.0,-37.75959723096307,-0.0
-0.0,50.346129641284094,-0.0,-25.173064820642047,25.173064820642047,-37.75959723096307,151.03838892385227,478.2882315921989,478.2882315921989,-12.586532410321023,-37.75959723096307,-0.0
-0.0,50.346129641284094,-0.0,-25.173064820642047,12.586532410321023,-25.173064820642047,151.03838892385227,390.18250471995174,465.70169918187787,-0.0,-37.75959723096307,-12.586532410321023
12.586532410321023,50.346129641284094,-0.0,-25.173064820642047,-0.0,-12.586532410321023,151.03838892385227,289.4902454373835,453.11516677155686,-0.0,-37.75959723096307,-12.586532410321023
-0.0,50.346129641284094,-0.0,-12.586532410321023,-0.0,-25.173064820642047,151.03838892385227,213.9710509754574,415.35556954059376,-0.0,-50.346129641284094,-12.586532410321023
-0.0,62.93266205160512,-0.0,-12.586532410321023,-0.0,-12.586532410321023,163.6249213341733,138.45185651353125,352.42290748898864,-0.0,-37.75959723096307,-25.173064820642047
-0.0,50.346129641284094,-0.0,-12.586532410321023,-0.0,-12.586532410321023,163.6249213341733,88.10572687224716,289.4902454373835,-0.0,-50.346129641284094,-25.173064820642047
-0.0,50.346129641284094,12.586532410321023,-0.0,-0.0,-12.586532410321023,163.6249213341733,50.346129641284094,213.9710509754574,-0.0,-62.93266205160512,-25.173064820642047
-0.0,50.346129641284094,12.586532410321023,-0.0,-0.0,-12.586532410321023,163.6249213341733,25.173064820642047,163.6249213341733,-0.0,-75.51919446192613,-37.75959723096307
-0.0,50.346129641284094,12.586532410321023,-0.0,-0.0,-12.586532410321023,163.6249213341733,12.586532410321023,100.69225928256819,-0.0,-75.51919446192613,-50.346129641284094
-12.586532410321023,50.346129641284094,-0.0,-0.0,-12.586532410321023,-12.586532410321023,163.6249213341733,-0.0,75.51919446192613,-0.0,-88.10572687224716,-62.93266205160512
-12.586532410321023,50.346129641284094,-0.0,-0.0,-12.586532410321023,-12.586532410321023,163.6249213341733,-0.0,37.75959723096307,-0.0,-100.69225928256819,-75.51919446192613
-12.586532410321023,50.346129641284094,-0.0,-0.0,-0.0,-12.586532410321023,163.6249213341733,-0.0,12.586532410321023,12.586532410321023,-113.27879169288921,-88.10572687224716
-12.586532410321023,50.346129641284094,-12.586532410321023,-0.0,-0.0,-12.586532410321023,176.21145374449432,-0.0,12.586532410321023,-0.0,-125.86532410321024,-100.69225928256819
-12.586532410321023,50.346129641284094,-12.586532410321023,-0.0,-0.0,-12.586532410321023,176.21145374449432,-0.0,-0.0,-0.0,-151.03838892385227,-113.27879169288921
-12.586532410321023,37.75959723096307,-12.586532410321023,-0.0,-0.0,-12.586532410321023,176.21145374449432,-0.0,-0.0,-0.0,-176.21145374449432,-125.86532410321024
-0.0,37.75959723096307,-0.0,-0.0,-12.586532410321023,-12.586532410321023,176.21145374449432,-0.0,-0.0,-12.586532410321023,-188.79798615481536,-151.03838892385227
-0.0,37.75959723096307,-0.0,-0.0,-12.586532410321023,-12.586532410321023,176.21145374449432,-0.0,-0.0,-25.173064820642047,-213.9710509754574,-163.6249213341733
-0.0,37.75959723096307,-0.0,-0.0,-12.586532410321023,-12.586532410321023,176.21145374449432,-0.0,-0.0,-37.75959723096307,-226.55758338577843,-188.79798615481536
12.586532410321023,37.75959723096307,-0.0,-0.0,-25.173064820642047,-12.586532410321023,188.79798615481536,-0.0,-0.0,-37.75959723096307,-226.55758338577843,-201.38451856513637
12.586532410321023,37.75959723096307,-0.0,-0.0,-25.173064820642047,-0.0,188.79798615481536,-0.0,-0.0,-50.346129641284094,-226.55758338577843,-201.38451856513637
25.173064820642047,50.346129641284094,-0.0,-12.586532410321023,-25.173064820642047,-0.0,188.79798615481536,12.586532410321023,-0.0,-50.346129641284094,-226.55758338577843,-201.38451856513637
25.173064820642047,62.93266205160512,-0.0,-12.586532410321023,-25.173064820642047,-12.586532410321023,188.79798615481536,25.173064820642047,-0.0,-50.346129641284094,-213.9710509754574,-201.38451856513637
37.75959723096307,75.51919446192613,-0.0,-25.173064820642047,-25.173064820642047,-0.0,188.79798615481536,37.75959723096307,-0.0,-50.346129641284094,-188.79798615481536,-188.79798615481536
50.346129641284094,88.10572687224716,12.586532410321023,-37.75959723096307,-25.173064820642047,-0.0,176.21145374449432,37.75959723096307,-0.0,-50.346129641284094,-138.45185651353125,-163.6249213341733
62.93266205160512,100.69225928256819,37.75959723096307,-50.346129641284094,-25.173064820642047,-0.0,176.21145374449432,50.346129641284094,-0.0,-50.346129641284094,-100.69225928256819,-138.45185651353125
75.51919446192613,100.69225928256819,25.173064820642047,-62.93266205160512,-12.586532410321023,12.586532410321023,188.79798615481536,50.346129641284094,12.586532410321023,-37.75959723096307,-37.75959723096307,-88.10572687224716
88.10572687224716,113.27879169288921,12.586532410321023,-62.93266205160512,-12.586532410321023,25.173064820642047,201.38451856513637,62.93266205160512,25.173064820642047,-25.173064820642047,12.586532410321023,-50.346129641284094
88.10572687224716,138.45185651353125,-0.0,-75.51919446192613,-0.0,37.75959723096307,201.38451856513637,62.93266205160512,37.75959723096307,-12.586532410321023,50.346129641284094,-0.0
100.69225928256819,163.6249213341733,-12.586532410321023,-88.10572687224716,12.586532410321023,37.75959723096307,201.38451856513637,62.93266205160512,37.75959723096307,-0.0,75.51919446192613,37.75959723096307
113.27879169288921,176.21145374449432,-25.173064820642047,-113.27879169288921,12.586532410321023,50.346129641284094,201.38451856513637,75.51919446192613,37.75959723096307,-0.0,88.10572687224716,75.51919446192613
125.86532410321024,188.79798615481536,-25.173064820642047,-125.86532410321024,12.586532410321023,37.75959723096307,188.79798615481536,88.10572687224716,50.346129641284094,12.586532410321023,100.69225928256819,88.10572687224716
125.86532410321024,176.21145374449432,-12.586532410321023,-125.86532410321024,12.586532410321023,50.346129641284094,176.21145374449432,88.10572687224716,50.346129641284094,12.586532410321023,113.27879169288921,100.69225928256819
113.27879169288921,176.21145374449432,-25.173064820642047,-125.86532410321024,25.173064820642047,62.93266205160512,138.45185651353125,75.51919446192613,62.93266205160512,12.586532410321023,125.86532410321024,113.27879169288921
100.69225928256819,163.6249213341733,-25.173064820642047,-138.45185651353125,37.75959723096307,88.10572687224716,125.86532410321024,75.51919446192613,62.93266205160512,12.586532410321023,125.86532410321024,125.86532410321024
88.10572687224716,151.03838892385227,-25.173064820642047,-138.45185651353125,37.75959723096307,88.10572687224716,100.69225928256819,88.10572687224716,62.93266205160512,12.586532410321023,125.86532410321024,125.86532410321024
62.93266205160512,138.45185651353125,-50.346129641284094,-138.45185651353125,37.75959723096307,75.51919446192613,88.10572687224716,100.69225928256819,62.93266205160512,12.586532410321023,125.86532410321024,138.45185651353125
50.346129641284094,125.86532410321024,-62.93266205160512,-125.86532410321024,37.75959723096307,75.51919446192613,88.10572687224716,100.69225928256819,62.93266205160512,12.586532410321023,125.86532410321024,125.86532410321024
37.75959723096307,100.69225928256819,-50.346129641284094,-113.27879169288921,25.173064820642047,62.93266205160512,100.69225928256819,100.69225928256819,62.93266205160512,12.586532410321023,125.86532410321024,125.86532410321024
25.173064820642047,75.51919446192613,-50.346129641284094,-88.10572687224716,25.173064820642047,62.93266205160512,100.69225928256819,100.69225928256819,88.10572687224716,12.586532410321023,125.86532410321024,125.86532410321024
12.586532410321023,62.93266205160512,-50.346129641284094,-75.51919446192613,12.586532410321023,62.93266205160512,100.69225928256819,88.10572687224716,100.69225928256819,12.586532410321023,125.86532410321024,125.86532410321024
-12.586532410321023,37.75959723096307,-50.346129641284094,-62.93266205160512,12.586532410321023,50.346129641284094,100.69225928256819,88.10572687224716,113.27879169288921,12.586532410321023,113.27879169288921,125.86532410321024
-12.586532410321023,12.586532410321023,-37.75959723096307,-37.75959723096307,25.173064820642047,37.75959723096307,113.27879169288921,75.51919446192613,100.69225928256819,-0.0,113.27879169288921,125.86532410321024
-12.586532410321023,-12.586532410321023,-37.75959723096307,-12.586532410321023,12.586532410321023,25.173064820642047,125.86532410321024,62.93266205160512,100.69225928256819,-0.0,113.27879169288921,125.86532410321024
-12.586532410321023,-12.586532410321023,-37.75959723096307,-0.0,-0.0,12.586532410321023,125.86532410321024,62.93266205160512,100.69225928256819,-0.0,113.27879169288921,125.86532410321024
-25.173064820642047,-0.0,-37.75959723096307,12.586532410321023,-0.0,-12.586532410321023,138.45185651353125,75.51919446192613,113.27879169288921,12.586532410321023,113.27879169288921,125.86532410321024
-25.173064820642047,-0.0,-37.75959723096307,12.586532410321023,-0.0,-25.173064820642047,151.03838892385227,75.51919446192613,100.69225928256819,-0.0,100.69225928256819,113.27879169288921
-25.173064820642047,-0.0,-37.75959723096307,12.586532410321023,-0.0,-37.75959723096307,163.6249213341733,75.51919446192613,75.51919446192613,-0.0,100.69225928256819,113.27879169288921
-25.173064820642047,-12.586532410321023,-62.93266205160512,12.586532410321023,-0.0,-25.173064820642047,163.6249213341733,75.51919446192613,75.51919446192613,-0.0,88.10572687224716,113.27879169288921
-25.173064820642047,-12.586532410321023,-75.51919446192613,12.586532410321023,-12.586532410321023,-37.75959723096307,163.6249213341733,75.51919446192613,62.93266205160512,-0.0,88.10572687224716,100.69225928256819
-0.0,-12.586532410321023,-50.346129641284094,12.586532410321023,-0.0,-37.75959723096307,163.6249213341733,62.93266205160512,62.93266205160512,-0.0,88.10572687224716,100.69225928256819
62.93266205160512,-0.0,138.45185651353125,12.586532410321023,-0.0,-37.75959723096307,163.6249213341733,50.346129641284094,50.346129641284094,-0.0,88.10572687224716,100.69225928256819
138.45185651353125,12.586532410321023,516.0478288231619,25.173064820642047,-0.0,-50.346129641284094,163.6249213341733,50.346129641284094,37.75959723096307,-0.0,88.10572687224716,88.10572687224716
163.6249213341733,62.93266205160512,969.1629955947188,-0.0,12.586532410321023,-50.346129641284094,163.6249213341733,62.93266205160512,25.173064820642047,-0.0,88.10572687224716,88.10572687224716
113.27879169288921,113.27879169288921,1283.8263058527443,-62.93266205160512,37.75959723096307,-50.346129641284094,163.6249213341733,62.93266205160512,12.586532410321023,-0.0,88.10572687224716,75.51919446192613
-37.75959723096307,176.21145374449432,1233.4801762114603,-113.27879169288921,62.93266205160512,-50.346129641284094,163.6249213341733,62.93266205160512,-0.0,-0.0,75.51919446192613,75.51919446192613
-125.86532410321024,314.6633102580256,881.0572687224717,-151.03838892385227,75.51919446192613,-37.75959723096307,163.6249213341733,62.93266205160512,-0.0,12.586532410321023,75.51919446192613,75.51919446192613
-62.93266205160512,541.2208936438041,453.11516677155686,-188.79798615481536,-62.93266205160512,-12.586532410321023,163.6249213341733,62.93266205160512,-12.586532410321023,-0.0,75.51919446192613,75.51919446192613
188.79798615481536,893.6438011327926,88.10572687224716,-251.73064820642048,-327.2498426683466,12.586532410321023,151.03838892385227,62.93266205160512,-25.173064820642047,-0.0,88.10572687224716,75.51919446192613
490.8747640025199,1271.2397734424233,-62.93266205160512,-377.5959723096307,-629.3266205160512,50.346129641284094,75.51919446192613,50.346129641284094,-25.173064820642047,-0.0,88.10572687224716,75.51919446192613
616.7400881057301,1522.9704216488437,75.51919446192613,-604.1535556954091,-780.3650094399035,226.55758338577843,-100.69225928256819,50.346129641284094,-25.173064820642047,12.586532410321023,88.10572687224716,75.51919446192613
503.46129641284097,1422.2781623662756,100.69225928256819,-830.7111390811875,-604.1535556954091,553.807426054125,-314.6633102580256,62.93266205160512,-25.173064820642047,25.173064820642047,100.69225928256819,75.51919446192613
289.4902454373835,1095.028319697929,37.75959723096307,-931.4033983637557,-302.07677784770453,969.1629955947188,-578.980490874767,62.93266205160512,-25.173064820642047,25.173064820642047,100.69225928256819,88.10572687224716
50.346129641284094,641.9131529263722,25.173064820642047,-818.1246066708666,-12.586532410321023,1321.5859030837075,-906.2303335431137,62.93266205160512,-25.173064820642047,37.75959723096307,113.27879169288921,88.10572687224716
-75.51919446192613,302.07677784770453,-0.0,-553.807426054125,138.45185651353125,1422.2781623662756,-1157.960981749534,151.03838892385227,-25.173064820642047,37.75959723096307,113.27879169288921,100.69225928256819
-88.10572687224716,176.21145374449432,-37.75959723096307,-276.9037130270625,138.45185651353125,1195.7205789804973,-1258.6532410321024,264.3171806167415,-37.75959723096307,50.346129641284094,113.27879169288921,113.27879169288921
-88.10572687224716,88.10572687224716,-50.346129641284094,-88.10572687224716,-12.586532410321023,792.9515418502244,-1044.682190056645,100.69225928256819,-37.75959723096307,50.346129641284094,125.86532410321024,113.27879169288921
-88.10572687224716,12.586532410321023,-37.75959723096307,25.173064820642047,-75.51919446192613,390.18250471995174,-755.1919446192614,-377.5959723096307,-25.173064820642047,62.93266205160512,138.45185651353125,113.27879169288921
-75.51919446192613,-12.586532410321023,-50.346129641284094,62.93266205160512,-50.346129641284094,113.27879169288921,-465.70169918187787,-1107.61485210825,62.93266205160512,62.93266205160512,163.6249213341733,113.27879169288921
-62.93266205160512,-25.173064820642047,-50.346129641284094,75.51919446192613,-37.75959723096307,62.93266205160512,-201.38451856513637,-1875.3933291378326,226.55758338577843,75.51919446192613,188.79798615481536,138.45185651353125
-62.93266205160512,-50.346129641284094,-50.346129641284094,62.93266205160512,-37.75959723096307,25.173064820642047,-25.173064820642047,-245.43738200125995,88.10572687224716,88.10572687224716,188.79798615481536,163.6249213341733
-62.93266205160512,-50.346129641284094,-50.346129641284094,62.93266205160512,-25.173064820642047,-50.346129641284094,75.51919446192613,1384.5185651353127,-377.5959723096307,88.10572687224716,188.79798615481536,176.21145374449432
-50.346129641284094,-50.346129641284094,-50.346129641284094,62.93266205160512,-12.586532410321023,-50.346129641284094,125.86532410321024,1170.5475141598552,1032.0956576463238,88.10572687224716,201.38451856513637,176.21145374449432
-50.346129641284094,-50.346129641284094,-62.93266205160512,62.93266205160512,-12.586532410321023,-62.93266205160512,163.6249213341733,1132.7879169288922,465.70169918187787,88.10572687224716,201.38451856513637,188.79798615481536
-50.346129641284094,-50.346129641284094,-75.51919446192613,62.93266205160512,-12.586532410321023,-62.93266205160512,176.21145374449432,1334.1724354940284,-151.03838892385227,88.10572687224716,213.9710509754574,188.79798615481536
-50.346129641284094,-50.346129641284094,-75.51919446192613,50.346129641284094,-0.0,-62.93266205160512,176.21145374449432,1485.2108244178808,-516.0478288231619,75.51919446192613,213.9710509754574,201.38451856513637
-50.346129641284094,-50.346129641284094,-75.51919446192613,50.346129641284094,-0.0,-62.93266205160512,176.21145374449432,-893.6438011327926,-478.2882315921989,75.51919446192613,201.38451856513637,213.9710509754574
-37.75959723096307,-50.346129641284094,-62.93266205160512,50.346129641284094,-0.0,-75.51919446192613,188.79798615481536,-528.634361233483,-62.93266205160512,62.93266205160512,188.79798615481536,201.38451856513637
-37.75959723096307,-50.346129641284094,-75.51919446192613,50.346129641284094,12.586532410321023,-88.10572687224716,188.79798615481536,-264.3171806167415,503.46129641284097,50.346129641284094,176.21145374449432,188.79798615481536
-37.75959723096307,-50.346129641284094,-75.51919446192613,50.346129641284094,12.586532410321023,-88.10572687224716,188.79798615481536,-88.10572687224716,1006.9225928256819,25.173064820642047,151.03838892385227,176.21145374449432
-37.75959723096307,-62.93266205160512,-88.10572687224716,50.346129641284094,12.586532410321023,-88.10572687224716,176.21145374449432,25.173064820642047,1246.0667086217813,25.173064820642047,138.45185651353125,176.21145374449432
-25.173064820642047,-50.346129641284094,-88.10572687224716,50.346129641284094,12.586532410321023,-88.10572687224716,188.79798615481536,113.27879169288921,-755.1919446192614,12.586532410321023,113.27879169288921,163.6249213341733
-12.586532410321023,-37.75959723096307,-75.51919446192613,37.75959723096307,12.586532410321023,-88.10572687224716,176.21145374449432,138.45185651353125,-440.52863436123585,-12.586532410321023,113.27879169288921,138.45185651353125
-12.586532410321023,-37.75959723096307,-75.51919446192613,37.75959723096307,25.173064820642047,-88.10572687224716,188.79798615481536,163.6249213341733,-251.73064820642048,-12.586532410321023,113.27879169288921,113.27879169288921
-12.586532410321023,-37.75959723096307,-75.51919446192613,37.75959723096307,25.173064820642047,-88.10572687224716,188.79798615481536,176.21145374449432,-125.86532410321024,-12.586532410321023,125.86532410321024,100.69225928256819
-12.586532410321023,-50.346129641284094,-75.51919446192613,37.75959723096307,25.173064820642047,-88.10572687224716,176.21145374449432,176.21145374449432,-25.173064820642047,-12.586532410321023,125.86532410321024,100.69225928256819
-12.586532410321023,-50.346129641284094,-88.10572687224716,37.75959723096307,25.173064820642047,-88.10572687224716,176.21145374449432,176.21145374449432,-0.0,-12.586532410321023,113.27879169288921,100.69225928256819
-12.586532410321023,-37.75959723096307,-88.10572687224716,37.75959723096307,25.173064820642047,-88.10572687224716,176.21145374449432,188.79798615481536,12.586532410321023,-12.586532410321023,113.27879169288921,100.69225928256819
-12.586532410321023,-37.75959723096307,-88.10572687224716,37.75959723096307,25.173064820642047,-88.10572687224716,176.21145374449432,188.79798615481536,25.173064820642047,-12.586532410321023,113.27879169288921,100.69225928256819
-12.586532410321023,-37.75959723096307,-88.10572687224716,37.75959723096307,37.75959723096307,-88.10572687224716,176.21145374449432,188.79798615481536,37.75959723096307,-25.173064820642047,113.27879169288921,100.69225928256819
-12.586532410321023,-37.75959723096307,-100.69225928256819,25.173064820642047,37.75959723096307,-88.10572687224716,176.21145374449432,188.79798615481536,37.75959723096307,-25.173064820642047,113.27879169288921,100.69225928256819
-0.0,-37.75959723096307,-100.69225928256819,25.173064820642047,50.346129641284094,-88.10572687224716,176.21145374449432,201.38451856513637,50.346129641284094,12.586532410321023,113.27879169288921,100.69225928256819
-0.0,-37.75959723096307,-113.27879169288921,25.173064820642047,50.346129641284094,-88.10572687224716,176.21145374449432,201.38451856513637,50.346129641284094,62.93266205160512,125.86532410321024,100.69225928256819
-0.0,-37.75959723096307,-125.86532410321024,25.173064820642047,50.346129641284094,-100.69225928256819,163.6249213341733,201.38451856513637,50.346129641284094,125.86532410321024,188.79798615481536,100.69225928256819
12.586532410321023,-37.75959723096307,-125.86532410321024,25.173064820642047,50.346129641284094,-100.69225928256819,163.6249213341733,201.38451856513637,62.93266205160512,213.9710509754574,327.2498426683466,88.10572687224716
25.173064820642047,-37.75959723096307,-138.45185651353125,12.586532410321023,62.93266205160512,-100.69225928256819,163.6249213341733,213.9710509754574,62.93266205160512,365.00943989930965,616.7400881057301,138.45185651353125
25.173064820642047,-37.75959723096307,-163.6249213341733,12.586532410321023,62.93266205160512,-100.69225928256819,163.6249213341733,213.9710509754574,75.51919446192613,528.634361233483,994.3360604153609,251.73064820642048
37.75959723096307,-37.75959723096307,-176.21145374449432,12.586532410321023,75.51919446192613,-100.69225928256819,163.6249213341733,226.55758338577843,75.51919446192613,767.7784770295824,1522.9704216488437,478.2882315921989
50.346129641284094,-37.75959723096307,-188.79798615481536,-0.0,88.10572687224716,-113.27879169288921,163.6249213341733,213.9710509754574,75.51919446192613,1019.5091252360029,2139.710509754574,818.1246066708666
62.93266205160512,-37.75959723096307,-201.38451856513637,-0.0,88.10572687224716,-113.27879169288921,163.6249213341733,226.55758338577843,75.51919446192613,1183.1340465701762,2643.171806167415,1283.8263058527443
75.51919446192613,-37.75959723096307,-226.55758338577843,-0.0,100.69225928256819,-113.27879169288921,163.6249213341733,226.55758338577843,88.10572687224716,1145.3744493392132,2831.96979232223,1837.6337319068693
88.10572687224716,-37.75959723096307,-251.73064820642048,-0.0,100.69225928256819,-113.27879169288921,163.6249213341733,239.14411579609944,88.10572687224716,1044.682190056645,2693.517935808699,2278.1623662681054
113.27879169288921,-37.75959723096307,-289.4902454373835,-12.586532410321023,113.27879169288921,-125.86532410321024,163.6249213341733,251.73064820642048,100.69225928256819,843.2976714915086,2202.643171806179,2479.5468848332416
125.86532410321024,-37.75959723096307,-302.07677784770453,-25.173064820642047,125.86532410321024,-125.86532410321024,163.6249213341733,251.73064820642048,100.69225928256819,377.5959723096307,2731.277533039662,2378.8546255506735
151.03838892385227,-37.75959723096307,-314.6633102580256,-25.173064820642047,138.45185651353125,-138.45185651353125,151.03838892385227,264.3171806167415,100.69225928256819,-88.10572687224716,2466.9603524229206,1963.4990560100796
176.21145374449432,-37.75959723096307,-327.2498426683466,-37.75959723096307,163.6249213341733,-138.45185651353125,151.03838892385227,276.9037130270625,113.27879169288921,-226.55758338577843,2328.5084959093892,1397.1050975456335
188.79798615481536,-37.75959723096307,-339.83637507866763,-50.346129641284094,176.21145374449432,-138.45185651353125,151.03838892385227,289.4902454373835,125.86532410321024,-213.9710509754574,2341.0950283197103,956.5764631843978
201.38451856513637,-37.75959723096307,-352.42290748898864,-62.93266205160512,201.38451856513637,-151.03838892385227,151.03838892385227,289.4902454373835,125.86532410321024,-138.45185651353125,2416.6142227816363,604.1535556954091
226.55758338577843,-37.75959723096307,-352.42290748898864,-62.93266205160512,226.55758338577843,-151.03838892385227,151.03838892385227,314.6633102580256,125.86532410321024,-88.10572687224716,2466.9603524229206,314.6633102580256
239.14411579609944,-37.75959723096307,-339.83637507866763,-75.51919446192613,251.73064820642048,-163.6249213341733,138.45185651353125,327.2498426683466,138.45185651353125,-50.346129641284094,2504.7199496538838,176.21145374449432
251.73064820642048,-37.75959723096307,-327.2498426683466,-88.10572687224716,264.3171806167415,-176.21145374449432,138.45185651353125,352.42290748898864,138.45185651353125,-37.75959723096307,2517.306482064205,100.69225928256819
251.73064820642048,-37.75959723096307,-289.4902454373835,-88.10572687224716,276.9037130270625,-188.79798615481536,138.45185651353125,377.5959723096307,151.03838892385227,-37.75959723096307,2517.306482064205,62.93266205160512
251.73064820642048,-37.75959723096307,-239.14411579609944,-100.69225928256819,289.4902454373835,-201.38451856513637,138.45185651353125,402.76903713027275,163.6249213341733,-37.75959723096307,2517.306482064205,50.346129641284094
239.14411579609944,-37.75959723096307,-201.38451856513637,-100.69225928256819,302.07677784770453,-213.9710509754574,138.45185651353125,427.9421019509148,176.21145374449432,-37.75959723096307,2517.306482064205,37.75959723096307
226.55758338577843,-37.75959723096307,-138.45185651353125,-113.27879169288921,289.4902454373835,-226.55758338577843,125.86532410321024,453.11516677155686,201.38451856513637,-37.75959723096307,2517.306482064205,25.173064820642047
201.38451856513637,-25.173064820642047,-100.69225928256819,-113.27879169288921,289.4902454373835,-226.55758338577843,125.86532410321024,490.8747640025199,213.9710509754574,-37.75959723096307,2517.306482064205,25.173064820642047
176.21145374449432,-0.0,-62.93266205160512,-113.27879169288921,289.4902454373835,-226.55758338577843,125.86532410321024,541.2208936438041,239.14411579609944,-25.173064820642047,2529.893014474526,25.173064820642047
138.45185651353125,25.173064820642047,-37.75959723096307,-113.27879169288921,251.73064820642048,-213.9710509754574,113.27879169288921,591.5670232850881,264.3171806167415,-25.173064820642047,2529.893014474526,25.173064820642047
113.27879169288921,37.75959723096307,-25.173064820642047,-113.27879169288921,201.38451856513637,-213.9710509754574,100.69225928256819,641.9131529263722,276.9037130270625,-25.173064820642047,2529.893014474526,37.75959723096307
88.10572687224716,50.346129641284094,-0.0,-100.69225928256819,163.6249213341733,-188.79798615481536,88.10572687224716,667.0862177470142,302.07677784770453,-25.173064820642047,2529.893014474526,25.173064820642047
62.93266205160512,62.93266205160512,-0.0,-88.10572687224716,113.27879169288921,-163.6249213341733,88.10572687224716,717.4323473882984,339.83637507866763,-12.586532410321023,2542.4795468848465,25.173064820642047
50.346129641284094,75.51919446192613,-0.0,-75.51919446192613,88.10572687224716,-125.86532410321024,75.51919446192613,742.6054122089404,365.00943989930965,-12.586532410321023,2542.4795468848465,25.173064820642047
37.75959723096307,75.51919446192613,-0.0,-75.51919446192613,75.51919446192613,-88.10572687224716,62.93266205160512,767.7784770295824,390.18250471995174,-12.586532410321023,2542.4795468848465,25.173064820642047
25.173064820642047,75.51919446192613,-0.0,-62.93266205160512,50.346129641284094,-50.346129641284094,50.346129641284094,780.3650094399035,415.35556954059376,-12.586532410321023,2542.4795468848465,37.75959723096307
25.173064820642047,88.10572687224716,12.586532410321023,-62.93266205160512,25.173064820642047,-37.75959723096307,50.346129641284094,780.3650094399035,440.52863436123585,-0.0,2555.0660792951676,25.173064820642047
25.173064820642047,75.51919446192613,12.586532410321023,-50.346129641284094,12.586532410321023,-25.173064820642047,50.346129641284094,780.3650094399035,453.11516677155686,-12.586532410321023,2542.4795468848465,25.173064820642047
12.586532410321023,75.51919446192613,12.586532410321023,-50.346129641284094,12.586532410321023,-12.586532410321023,50.346129641284094,742.6054122089404,465.70169918187787,-12.586532410321023,2542.4795468848465,25.173064820642047
12.586532410321023,75.51919446192613,25.173064820642047,-50.346129641284094,12.586532410321023,-0.0,50.346129641284094,679.6727501573353,465.70169918187787,-0.0,2555.0660792951676,25.173064820642047
12.586532410321023,75.51919446192613,12.586532410321023,-37.75959723096307,12.586532410321023,-0.0,50.346129641284094,604.1535556954091,465.70169918187787,-0.0,2555.0660792951676,25.173064820642047
12.586532410321023,75.51919446192613,12.586532410321023,-37.75959723096307,12.586532410321023,-0.0,50.346129641284094,503.46129641284097,465.70169918187787,-0.0,2555.0660792951676,25.173064820642047
12.586532410321023,75.51919446192613,12.586532410321023,-37.75959723096307,-0.0,-0.0,50.346129641284094,415.35556954059376,440.52863436123585,-0.0,2555.0660792951676,25.173064820642047
12.586532410321023,75.51919446192613,12.586532410321023,-25.173064820642047,-0.0,-0.0,50.346129641284094,327.2498426683466,377.5959723096307,-0.0,2555.0660792951676,12.586532410321023
12.586532410321023,88.10572687224716,12.586532410321023,-25.173064820642047,-0.0,-0.0,50.346129641284094,276.9037130270625,327.2498426683466,-0.0,2555.0660792951676,-0.0
12.586532410321023,75.51919446192613,12.586532410321023,-25.173064820642047,-0.0,-0.0,50.346129641284094,239.14411579609944,264.3171806167415,-0.0,2555.0660792951676,-0.0
12.586532410321023,75.51919446192613,12.586532410321023,-25.173064820642047,-0.0,-0.0,50.346129641284094,213.9710509754574,201.38451856513637,-0.0,2555.0660792951676,12.586532410321023
12.586532410321023,75.51919446192613,12.586532410321023,-25.173064820642047,-0.0,-0.0,50.346129641284094,188.79798615481536,138.45185651353125,12.586532410321023,2567.6526117054887,12.586532410321023
-0.0,75.51919446192613,12.586532410321023,-25.173064820642047,-0.0,12.586532410321023,50.346129641284094,176.21145374449432,100.69225928256819,12.586532410321023,2567.6526117054887,-0.0
-0.0,75.51919446192613,12.586532410321023,-25.173064820642047,-0.0,-0.0,50.346129641284094,163.6249213341733,62.93266205160512,12.586532410321023,2567.6526117054887,-0.0
-0.0,75.51919446192613,12.586532410321023,-25.173064820642047,-0.0,-0.0,50.346129641284094,151.03838892385227,37.75959723096307,-0.0,2555.0660792951676,-12.586532410321023
-0.0,75.51919446192613,12.586532410321023,-25.173064820642047,-0.0,-0.0,50.346129641284094,163.6249213341733,25.173064820642047,-0.0,2555.0660792951676,-12.586532410321023
-0.0,62.93266205160512,12.586532410321023,-25.173064820642047,-12.586532410321023,-0.0,50.346129641284094,151.03838892385227,-0.0,12.586532410321023,2567.6526117054887,-25.173064820642047
-0.0,62.93266205160512,12.586532410321023,-25.173064820642047,-12.586532410321023,-0.0,50.346129641284094,151.03838892385227,-12.586532410321023,12.586532410321023,2567.6526117054887,-25.173064820642047
-0.0,75.51919446192613,25.173064820642047,-25.173064820642047,-12.586532410321023,-0.0,50.346129641284094,151.03838892385227,-12.586532410321023,12.586532410321023,2567.6526117054887,-37.75959723096307
12.586532410321023,75.51919446192613,25.173064820642047,-25.173064820642047,-12.586532410321023,-0.0,50.346129641284094,138.45185651353125,-12.586532410321023,25.173064820642047,2580.2391441158097,-50.346129641284094
12.586532410321023,75.51919446192613,25.173064820642047,-25.173064820642047,-25.173064820642047,-0.0,50.346129641284094,138.45185651353125,-12.586532410321023,12.586532410321023,2567.6526117054887,-62.93266205160512
12.586532410321023,75.51919446192613,37.75959723096307,-12.586532410321023,-12.586532410321023,-0.0,50.346129641284094,151.03838892385227,-12.586532410321023,-0.0,2555.0660792951676,-75.51919446192613
25.173064820642047,75.51919446192613,25.173064820642047,-25.173064820642047,-12.586532410321023,12.586532410321023,50.346129641284094,163.6249213341733,-12.586532410321023,-12.586532410321023,2542.4795468848465,-88.10572687224716
25.173064820642047,88.10572687224716,25.173064820642047,-37.75959723096307,-12.586532410321023,-0.0,50.346129641284094,163.6249213341733,-12.586532410321023,-12.586532410321023,2542.4795468848465,-113.27879169288921
37.75959723096307,100.69225928256819,25.173064820642047,-50.346129641284094,-25.173064820642047,-0.0,50.346129641284094,163.6249213341733,-12.586532410321023,-12.586532410321023,2542.4795468848465,-138.45185651353125
50.346129641284094,113.27879169288921,50.346129641284094,-50.346129641284094,-12.586532410321023,-0.0,50.346129641284094,176.21145374449432,-12.586532410321023,-25.173064820642047,2529.893014474526,-151.03838892385227
75.51919446192613,125.86532410321024,50.346129641284094,-62.93266205160512,-12.586532410321023,12.586532410321023,50.346129641284094,176.21145374449432,-0.0,-37.75959723096307,2517.306482064205,-163.6249213341733
100.69225928256819,138.45185651353125,37.75959723096307,-75.51919446192613,-12.586532410321023,25.173064820642047,62.93266205160512,176.21145374449432,-0.0,-50.346129641284094,2504.7199496538838,-163.6249213341733
113.27879169288921,151.03838892385227,25.173064820642047,-88.10572687224716,-0.0,37.75959723096307,75.51919446192613,188.79798615481536,-0.0,-62.93266205160512,2492.1334172435627,-176.21145374449432
113.27879169288921,188.79798615481536,12.586532410321023,-100.69225928256819,12.586532410321023,37.75959723096307,62.93266205160512,188.79798615481536,12.586532410321023,-62.93266205160512,2492.1334172435627,-176.21145374449432
125.86532410321024,213.9710509754574,12.586532410321023,-113.27879169288921,12.586532410321023,50.346129641284094,50.346129641284094,201.38451856513637,12.586532410321023,-62.93266205160512,2492.1334172435627,-176.21145374449432
138.45185651353125,226.55758338577843,-0.0,-138.45185651353125,25.173064820642047,50.346129641284094,50.346129641284094,201.38451856513637,12.586532410321023,-50.346129641284094,2504.7199496538838,-163.6249213341733
138.45185651353125,226.55758338577843,-0.0,-151.03838892385227,25.173064820642047,50.346129641284094,37.75959723096307,213.9710509754574,12.586532410321023,-37.75959723096307,2517.306482064205,-125.86532410321024
138.45185651353125,213.9710509754574,12.586532410321023,-151.03838892385227,25.173064820642047,62.93266205160512,-0.0,226.55758338577843,12.586532410321023,-37.75959723096307,2517.306482064205,-75.51919446192613
125.86532410321024,213.9710509754574,12.586532410321023,-151.03838892385227,25.173064820642047,75.51919446192613,-25.173064820642047,213.9710509754574,25.173064820642047,-37.75959723096307,2517.306482064205,-25.173064820642047
113.27879169288921,201.38451856513637,12.586532410321023,-151.03838892385227,37.75959723096307,88.10572687224716,-37.75959723096307,213.9710509754574,37.75959723096307,-25.173064820642047,2529.893014474526,25.173064820642047
88.10572687224716,188.79798615481536,-0.0,-151.03838892385227,50.346129641284094,88.10572687224716,-62.93266205160512,213.9710509754574,37.75959723096307,-12.586532410321023,2542.4795468848465,62.93266205160512
75.51919446192613,163.6249213341733,-25.173064820642047,-138.45185651353125,50.346129641284094,88.10572687224716,-62.93266205160512,226.55758338577843,50.346129641284094,-0.0,2555.0660792951676,88.10572687224716
50.346129641284094,151.03838892385227,-25.173064820642047,-125.86532410321024,37.75959723096307,75.51919446192613,-62.93266205160512,226.55758338577843,50.346129641284094,-0.0,2555.0660792951676,113.27879169288921
37.75959723096307,138.45185651353125,-25.173064820642047,-113.27879169288921,37.75959723096307,62.93266205160512,-62.93266205160512,226.55758338577843,50.346129641284094,12.586532410321023,2567.6526117054887,125.86532410321024
25.173064820642047,113.27879169288921,-12.586532410321023,-88.10572687224716,25.173064820642047,50.346129641284094,-62.93266205160512,239.14411579609944,50.346129641284094,12.586532410321023,2567.6526117054887,138.45185651353125
-0.0,88.10572687224716,-12.586532410321023,-75.51919446192613,25.173064820642047,50.346129641284094,-50.346129641284094,239.14411579609944,50.346129641284094,12.586532410321023,2567.6526117054887,138.45185651353125
-0.0,62.93266205160512,-12.586532410321023,-50.346129641284094,25.173064820642047,37.75959723096307,-37.75959723096307,239.14411579609944,62.93266205160512,12.586532410321023,2567.6526117054887,151.03838892385227
-0.0,37.75959723096307,-12.586532410321023,-37.75959723096307,25.173064820642047,25.173064820642047,-37.75959723096307,251.73064820642048,75.51919446192613,12.586532410321023,2567.6526117054887,163.6249213341733
-0.0,25.173064820642047,-12.586532410321023,-12.586532410321023,12.586532410321023,12.586532410321023,-25.173064820642047,226.55758338577843,75.51919446192613,12.586532410321023,2567.6526117054887,151.03838892385227
-12.586532410321023,37.75959723096307,-12.586532410321023,-0.0,12.586532410321023,-0.0,-25.173064820642047,226.55758338577843,88.10572687224716,12.586532410321023,2567.6526117054887,151.03838892385227
-12.586532410321023,37.75959723096307,-12.586532410321023,12.586532410321023,12.586532410321023,-25.173064820642047,-12.586532410321023,226.55758338577843,88.10572687224716,12.586532410321023,2567.6526117054887,151.03838892385227
-12.586532410321023,25.173064820642047,-25.173064820642047,12.586532410321023,12.586532410321023,-37.75959723096307,-0.0,213.9710509754574,100.69225928256819,12.586532410321023,2567.6526117054887,151.03838892385227
-25.173064820642047,25.173064820642047,-37.75959723096307,12.586532410321023,-0.0,-37.75959723096307,-0.0,213.9710509754574,100.69225928256819,12.586532410321023,2567.6526117054887,151.03838892385227
-25.173064820642047,25.173064820642047,-62.93266205160512,12.586532410321023,-0.0,-37.75959723096307,-0.0,213.9710509754574,100.69225928256819,12.586532410321023,2567.6526117054887,151.03838892385227
-12.586532410321023,12.586532410321023,-75.51919446192613,12.586532410321023,-0.0,-37.75959723096307,-0.0,201.38451856513637,88.10572687224716,-0.0,2555.0660792951676,151.03838892385227
50.346129641284094,12.586532410321023,50.346129641284094,25.173064820642047,-0.0,-37.75959723096307,-0.0,201.38451856513637,62.93266205160512,-0.0,2555.0660792951676,138.45185651353125
0.0,25.173064820642047,365.00943989930965,25.173064820642047,-0.0,-37.75959723096307,-0.0,201.38451856513637,62.93266205160512,-0.0,2555.0660792951676,138.45185651353125
0.0,75.51919446192613,805.5380742605455,12.586532410321023,-0.0,-37.75959723096307,-0.0,201.38451856513637,62.93266205160512,-0.0,2555.0660792951676,125.86532410321024
0.0,125.86532410321024,1208.3071113908181,-25.173064820642047,25.173064820642047,-37.75959723096307,-0.0,188.79798615481536,50.346129641284094,-0.0,2555.0660792951676,125.86532410321024
0.0,176.21145374449432,1321.5859030837075,-75.51919446192613,50.346129641284094,-37.75959723096307,-0.0,188.79798615481536,37.75959723096307,-0.0,2555.0660792951676,125.86532410321024
0.0,264.3171806167415,1044.682190056645,-138.45185651353125,75.51919446192613,-37.75959723096307,-0.0,188.79798615481536,12.586532410321023,-0.0,2555.0660792951676,125.86532410321024
0.0,465.70169918187787,654.4996853366932,-176.21145374449432,50.346129641284094,-37.75959723096307,-0.0,188.79798615481536,12.586532410321023,-0.0,2555.0660792951676,138.45185651353125
0.0,767.7784770295824,0.0,-239.14411579609944,0.0,0.0,-0.0,188.79798615481536,0.0,-0.0,2555.0660792951676,125.86532410321024
0.0,1157.960981749534,0.0,-302.07677784770453,0.0,0.0,-62.93266205160512,201.38451856513637,0.0,-0.0,0.0,125.86532410321024
0.0,1434.8646947765967,0.0,0.0,0.0,0.0,-188.79798615481536,0.0,0.0,-0.0,0.0,113.27879169288921
0.0,1283.8263058527443,0.0,0.0,0.0,0.0,-402.76903713027275,0.0,0.0,0.0,0.0,0.0
0.0,1308.9993706733865,0.0,0.0,0.0,0.0,-641.9131529263722,0.0,0.0,0.0,0.0,0.0
0.0,881.0572687224717,0.0,0.0,0.0,0.0,-931.4033983637557,0.0,0.0,0.0,0.0,0.0
0.0,465.70169918187787,0.0,0.0,0.0,0.0,-1246.0667086217813,0.0,0.0,0.0,0.0,0.0
0.0,276.9037130270625,0.0,0.0,0.0,0.0,-1170.5475141598552,0.0,0.0,0.0,0.0,0.0
0.0,176.21145374449432,0.0,0.0,0.0,0.0,-1107.61485210825,0.0,0.0,0.0,0.0,0.0
0.0,75.51919446192613,0.0,0.0,0.0,0.0,-1044.682190056645,0.0,0.0,0.0,0.0,0.0
0.0,37.75959723096307,0.0,0.0,0.0,0.0,-742.6054122089404,0.0,0.0,0.0,0.0,0.0
0.0,12.586532410321023,0.0,0.0,0.0,0.0,-465.70169918187787,0.0,0.0,0.0,0.0,0.0
0.0,-12.586532410321023,0.0,0.0,0.0,0.0,-251.73064820642048,0.0,0.0,0.0,0.0,0.0
0.0,-0.0,0.0,0.0,0.0,0.0,-138.45185651353125,0.0,0.0,0.0,0.0,0.0
0.0,-0.0,0.0,0.0,0.0,0.0,-62.93266205160512,0.0,0.0,0.0,0.0,0.0
0.0,-0.0,0.0,0.0,0.0,0.0,-25.173064820642047,0.0,0.0,0.0,0.0,0.0
0.0,-12.586532410321023,0.0,0.0,0.0,0.0,-0.0,0.0,0.0,0.0,0.0,0.0
0.0,-12.586532410321023,0.0,0.0,0.0,0.0,-0.0,0.0,0.0,0.0,0.0,0.0
0.0,-0.0,0.0,0.0,0.0,0.0,-0.0,0.0,0.0,0.0,0.0,0.0
0.0,-12.586532410321023,0.0,0.0,0.0,0.0,12.586532410321023,0.0,0.0,0.0,0.0,0.0
0.0,-12.586532410321023,0.0,0.0,0.0,0.0,12.586532410321023,0.0,0.0,0.0,0.0,0.0
0.0,-12.586532410321023,0.0,0.0,0.0,0.0,12.586532410321023,0.0,0.0,0.0,0.0,0.0
0.0,-12.586532410321023,0.0,0.0,0.0,0.0,12.586532410321023,0.0,0.0,0.0,0.0,0.0
0.0,-12.586532410321023,0.0,0.0,0.0,0.0,12.586532410321023,0.0,0.0,0.0,0.0,0.0
0.0,-0.0,0.0,0.0,0.0,0.0,12.586532410321023,0.0,0.0,0.0,0.0,0.0
0.0,-0.0,0.0,0.0,0.0,0.0,12.586532410321023,0.0,0.0,0.0,0.0,0.0
0.0,-0.0,0.0,0.0,0.0,0.0,12.586532410321023,0.0,0.0,0.0,0.0,0.0
0.0,-0.0,0.0,0.0,0.0,0.0,-0.0,0.0,0.0,0.0,0.0,0.0
0.0,-12.586532410321023,0.0,0.0,0.0,0.0,-0.0,0.0,0.0,0.0,0.0,0.0
0.0,-12.586532410321023,0.0,0.0,0.0,0.0,-0.0,0.0,0.0,0.0,0.0,0.0
0.0,-12.586532410321023,0.0,0.0,0.0,0.0,-0.0,0.0,0.0,0.0,0.0,0.0
0.0,-12.586532410321023,0.0,0.0,0.0,0.0,-0.0,0.0,0.0,0.0,0.0,0.0
0.0,-12.586532410321023,0.0,0.0,0.0,0.0,12.586532410321023,0.0,0.0,0.0,0.0,0.0
0.0,-12.586532410321023,0.0,0.0,0.0,0.0,12.586532410321023,0.0,0.0,0.0,0.0,0.0
0.0,-12.586532410321023,0.0,0.0,0.0,0.0,-0.0,0.0,0.0,0.0,0.0,0.0
0.0,-12.586532410321023,0.0,0.0,0.0,0.0,-0.0,0.0,0.0,0.0,0.0,0.0
0.0,-12.586532410321023,0.0,0.0,0.0,0.0,-0.0,0.0,0.0,0.0,0.0,0.0
0.0,-12.586532410321023,0.0,0.0,0.0,0.0,-0.0,0.0,0.0,0.0,0.0,0.0
0.0,-12.586532410321023,0.0,0.0,0.0,0.0,-0.0,0.0,0.0,0.0,0.0,0.0
0.0,-12.586532410321023,0.0,0.0,0.0,0.0,-0.0,0.0,0.0,0.0,0.0,0.0
0.0,-12.586532410321023,0.0,0.0,0.0,0.0,-0.0,0.0,0.0,0.0,0.0,0.0
0.0,-12.586532410321023,0.0,0.0,0.0,0.0,-0.0,0.0,0.0,0.0,0.0,0.0
0.0,-12.586532410321023,0.0,0.0,0.0,0.0,-0.0,0.0,0.0,0.0,0.0,0.0
0.0,-12.586532410321023,0.0,0.0,0.0,0.0,-12.586532410321023,0.0,0.0,0.0,0.0,0.0
0.0,-12.586532410321023,0.0,0.0,0.0,0.0,-12.586532410321023,0.0,0.0,0.0,0.0,0.0
0.0,-12.586532410321023,0.0,0.0,0.0,0.0,-12.586532410321023,0.0,0.0,0.0,0.0,0.0
0.0,-12.586532410321023,0.0,0.0,0.0,0.0,-0.0,0.0,0.0,0.0,0.0,0.0
0.0,-25.173064820642047,0.0,0.0,0.0,0.0,-0.0,0.0,0.0,0.0,0.0,0.0
0.0,-25.173064820642047,0.0,0.0,0.0,0.0,-12.586532410321023,0.0,0.0,0.0,0.0,0.0
0.0,-25.173064820642047,0.0,0.0,0.0,0.0,-12.586532410321023,0.0,0.0,0.0,0.0,0.0
0.0,-25.173064820642047,0.0,0.0,0.0,0.0,-12.586532410321023,0.0,0.0,0.0,0.0,0.0
0.0,-25.173064820642047,0.0,0.0,0.0,0.0,-12.586532410321023,0.0,0.0,0.0,0.0,0.0
0.0,-37.75959723096307,0.0,0.0,0.0,0.0,-12.586532410321023,0.0,0.0,0.0,0.0,0.0
0.0,-37.75959723096307,0.0,0.0,0.0,0.0,-12.586532410321023,0.0,0.0,0.0,0.0,0.0
0.0,-37.75959723096307,0.0,0.0,0.0,0.0,-25.173064820642047,0.0,0.0,0.0,0.0,0.0
0.0,-25.173064820642047,0.0,0.0,0.0,0.0,-25.173064820642047,0.0,0.0,0.0,0.0,0.0
0.0,-12.586532410321023,0.0,0.0,0.0,0.0,-25.173064820642047,0.0,0.0,0.0,0.0,0.0
0.0,-0.0,0.0,0.0,0.0,0.0,-25.173064820642047,0.0,0.0,0.0,0.0,0.0
0.0,12.586532410321023,0.0,0.0,0.0,0.0,-37.75959723096307,0.0,0.0,0.0,0.0,0.0
0.0,25.173064820642047,0.0,0.0,0.0,0.0,-37.75959723096307,0.0,0.0,0.0,0.0,0.0
0.0,50.346129641284094,0.0,0.0,0.0,0.0,-50.346129641284094,0.0,0.0,0.0,0.0,0.0
0.0,75.51919446192613,0.0,0.0,0.0,0.0,-50.346129641284094,0.0,0.0,0.0,0.0,0.0
0.0,88.10572687224716,0.0,0.0,0.0,0.0,-62.93266205160512,0.0,0.0,0.0,0.0,0.0
0.0,75.51919446192613,0.0,0.0,0.0,0.0,-75.51919446192613,0.0,0.0,0.0,0.0,0.0
0.0,88.10572687224716,0.0,0.0,0.0,0.0,-88.10572687224716,0.0,0.0,0.0,0.0,0.0
0.0,100.69225928256819,0.0,0.0,0.0,0.0,-100.69225928256819,0.0,0.0,0.0,0.0,0.0
0.0,100.69225928256819,0.0,0.0,0.0,0.0,-100.69225928256819,0.0,0.0,0.0,0.0,0.0
0.0,88.10572687224716,0.0,0.0,0.0,0.0,-100.69225928256819,0.0,0.0,0.0,0.0,0.0
0.0,88.10572687224716,0.0,0.0,0.0,0.0,-100.69225928256819,0.0,0.0,0.0,0.0,0.0
0.0,75.51919446192613,0.0,0.0,0.0,0.0,-100.69225928256819,0.0,0.0,0.0,0.0,0.0
0.0,75.51919446192613,0.0,0.0,0.0,0.0,-100.69225928256819,0.0,0.0,0.0,0.0,0.0
0.0,88.10572687224716,0.0,0.0,0.0,0.0,-100.69225928256819,0.0,0.0,0.0,0.0,0.0
0.0,88.10572687224716,0.0,0.0,0.0,0.0,-100.69225928256819,0.0,0.0,0.0,0.0,0.0
0.0,88.10572687224716,0.0,0.0,0.0,0.0,-88.10572687224716,0.0,0.0,0.0,0.0,0.0
0.0,88.10572687224716,0.0,0.0,0.0,0.0,-88.10572687224716,0.0,0.0,0.0,0.0,0.0
0.0,88.10572687224716,0.0,0.0,0.0,0.0,-88.10572687224716,0.0,0.0,0.0,0.0,0.0
0.0,75.51919446192613,0.0,0.0,0.0,0.0,-88.10572687224716,0.0,0.0,0.0,0.0,0.0
0.0,75.51919446192613,0.0,0.0,0.0,0.0,-88.10572687224716,0.0,0.0,0.0,0.0,0.0
0.0,62.93266205160512,0.0,0.0,0.0,0.0,-88.10572687224716,0.0,0.0,0.0,0.0,0.0
0.0,62.93266205160512,0.0,0.0,0.0,0.0,-88.10572687224716,0.0,0.0,0.0,0.0,0.0
0.0,62.93266205160512,0.0,0.0,0.0,0.0,-88.10572687224716,0.0,0.0,0.0,0.0,0.0
0.0,75.51919446192613,0.0,0.0,0.0,0.0,-88.10572687224716,0.0,0.0,0.0,0.0,0.0
0.0,62.93266205160512,0.0,0.0,0.0,0.0,-88.10572687224716,0.0,0.0,0.0,0.0,0.0
0.0,62.93266205160512,0.0,0.0,0.0,0.0,-88.10572687224716,0.0,0.0,0.0,0.0,0.0
0.0,62.93266205160512,0.0,0.0,0.0,0.0,-88.10572687224716,0.0,0.0,0.0,0.0,0.0
0.0,75.51919446192613,0.0,0.0,0.0,0.0,-88.10572687224716,0.0,0.0,0.0,0.0,0.0
0.0,75.51919446192613,0.0,0.0,0.0,0.0,-88.10572687224716,0.0,0.0,0.0,0.0,0.0
0.0,75.51919446192613,0.0,0.0,0.0,0.0,-75.51919446192613,0.0,0.0,0.0,0.0,0.0
0.0,75.51919446192613,0.0,0.0,0.0,0.0,-75.51919446192613,0.0,0.0,0.0,0.0,0.0
0.0,88.10572687224716,0.0,0.0,0.0,0.0,-75.51919446192613,0.0,0.0,0.0,0.0,0.0
0.0,100.69225928256819,0.0,0.0,0.0,0.0,-75.51919446192613,0.0,0.0,0.0,0.0,0.0
0.0,113.27879169288921,0.0,0.0,0.0,0.0,-75.51919446192613,0.0,0.0,0.0,0.0,0.0
0.0,125.86532410321024,0.0,0.0,0.0,0.0,-75.51919446192613,0.0,0.0,0.0,0.0,0.0
0.0,138.45185651353125,0.0,0.0,0.0,0.0,-62.93266205160512,0.0,0.0,0.0,0.0,0.0
0.0,138.45185651353125,0.0,0.0,0.0,0.0,-50.346129641284094,0.0,0.0,0.0,0.0,0.0
0.0,163.6249213341733,0.0,0.0,0.0,0.0,-50.346129641284094,0.0,0.0,0.0,0.0,0.0
0.0,201.38451856513637,0.0,0.0,0.0,0.0,-50.346129641284094,0.0,0.0,0.0,0.0,0.0
0.0,213.9710509754574,0.0,0.0,0.0,0.0,-62.93266205160512,0.0,0.0,0.0,0.0,0.0
0.0,213.9710509754574,0.0,0.0,0.0,0.0,-75.51919446192613,0.0,0.0,0.0,0.0,0.0
0.0,201.38451856513637,0.0,0.0,0.0,0.0,-100.69225928256819,0.0,0.0,0.0,0.0,0.0
0.0,201.38451856513637,0.0,0.0,0.0,0.0,-125.86532410321024,0.0,0.0,0.0,0.0,0.0
0.0,188.79798615481536,0.0,0.0,0.0,0.0,-138.45185651353125,0.0,0.0,0.0,0.0,0.0
0.0,176.21145374449432,0.0,0.0,0.0,0.0,-151.03838892385227,0.0,0.0,0.0,0.0,0.0
0.0,163.6249213341733,0.0,0.0,0.0,0.0,-163.6249213341733,0.0,0.0,0.0,0.0,0.0
0.0,151.03838892385227,0.0,0.0,0.0,0.0,-163.6249213341733,0.0,0.0,0.0,0.0,0.0
0.0,113.27879169288921,0.0,0.0,0.0,0.0,-163.6249213341733,0.0,0.0,0.0,0.0,0.0
0.0,88.10572687224716,0.0,0.0,0.0,0.0,-163.6249213341733,0.0,0.0,0.0,0.0,0.0
0.0,75.51919446192613,0.0,0.0,0.0,0.0,-163.6249213341733,0.0,0.0,0.0,0.0,0.0
0.0,50.346129641284094,0.0,0.0,0.0,0.0,-151.03838892385227,0.0,0.0,0.0,0.0,0.0
0.0,25.173064820642047,0.0,0.0,0.0,0.0,-138.45185651353125,0.0,0.0,0.0,0.0,0.0
0.0,12.586532410321023,0.0,0.0,0.0,0.0,-125.86532410321024,0.0,0.0,0.0,0.0,0.0
0.0,12.586532410321023,0.0,0.0,0.0,0.0,-113.27879169288921,0.0,0.0,0.0,0.0,0.0
0.0,12.586532410321023,0.0,0.0,0.0,0.0,-100.69225928256819,0.0,0.0,0.0,0.0,0.0
0.0,-0.0,0.0,0.0,0.0,0.0,-88.10572687224716,0.0,0.0,0.0,0.0,0.0
0.0,-0.0,0.0,0.0,0.0,0.0,-88.10572687224716,0.0,0.0,0.0,0.0,0.0
0.0,-0.0,0.0,0.0,0.0,0.0,-88.10572687224716,0.0,0.0,0.0,0.0,0.0
0.0,-0.0,0.0,0.0,0.0,0.0,-75.51919446192613,0.0,0.0,0.0,0.0,0.0
0.0,-0.0,0.0,0.0,0.0,0.0,-75.51919446192613,0.0,0.0,0.0,0.0,0.0
0.0,-0.0,0.0,0.0,0.0,0.0,-75.51919446192613,0.0,0.0,0.0,0.0,0.0
0.0,50.346129641284094,0.0,0.0,0.0,0.0,-88.10572687224716,0.0,0.0,0.0,0.0,0.0
0.0,113.27879169288921,0.0,0.0,0.0,0.0,-88.10572687224716,0.0,0.0,0.0,0.0,0.0
0.0,163.6249213341733,0.0,0.0,0.0,0.0,-75.51919446192613,0.0,0.0,0.0,0.0,0.0
0.0,264.3171806167415,0.0,0.0,0.0,0.0,-75.51919446192613,0.0,0.0,0.0,0.0,0.0
0.0,453.11516677155686,0.0,0.0,0.0,0.0,-88.10572687224716,0.0,0.0,0.0,0.0,0.0
0.0,742.6054122089404,0.0,0.0,0.0,0.0,-75.51919446192613,0.0,0.0,0.0,0.0,0.0
0.0,1132.7879169288922,0.0,0.0,0.0,0.0,-113.27879169288921,0.0,0.0,0.0,0.0,0.0
0.0,1447.4512271869178,0.0,0.0,0.0,0.0,-226.55758338577843,0.0,0.0,0.0,0.0,0.0
0.0,1233.4801762114603,0.0,0.0,0.0,0.0,-402.76903713027275,0.0,0.0,0.0,0.0,0.0
0.0,1346.7589679043494,0.0,0.0,0.0,0.0,-641.9131529263722,0.0,0.0,0.0,0.0,0.0
0.0,918.8168659534347,0.0,0.0,0.0,0.0,-918.8168659534347,0.0,0.0,0.0,0.0,0.0
0.0,478.2882315921989,0.0,0.0,0.0,0.0,-1233.4801762114603,0.0,0.0,0.0,0.0,0.0
0.0,226.55758338577843,0.0,0.0,0.0,0.0,-1447.4512271869178,0.0,0.0,0.0,0.0,0.0
0.0,100.69225928256819,0.0,0.0,0.0,0.0,-1334.1724354940284,0.0,0.0,0.0,0.0,0.0
0.0,12.586532410321023,0.0,0.0,0.0,0.0,-1107.61485210825,0.0,0.0,0.0,0.0,0.0
0.0,-25.173064820642047,0.0,0.0,0.0,0.0,-818.1246066708666,0.0,0.0,0.0,0.0,0.0
0.0,-25.173064820642047,0.0,0.0,0.0,0.0,-541.2208936438041,0.0,0.0,0.0,0.0,0.0
0.0,-25.173064820642047,0.0,0.0,0.0,0.0,-314.6633102580256,0.0,0.0,0.0,0.0,0.0
0.0,-25.173064820642047,0.0,0.0,0.0,0.0,-176.21145374449432,0.0,0.0,0.0,0.0,0.0
0.0,-25.173064820642047,0.0,0.0,0.0,0.0,-100.69225928256819,0.0,0.0,0.0,0.0,0.0
0.0,-37.75959723096307,0.0,0.0,0.0,0.0,-62.93266205160512,0.0,0.0,0.0,0.0,0.0
0.0,-37.75959723096307,0.0,0.0,0.0,0.0,-37.75959723096307,0.0,0.0,0.0,0.0,0.0
0.0,-37.75959723096307,0.0,0.0,0.0,0.0,-25.173064820642047,0.0,0.0,0.0,0.0,0.0
0.0,-25.173064820642047,0.0,0.0,0.0,0.0,-25.173064820642047,0.0,0.0,0.0,0.0,0.0
0.0,-25.173064820642047,0.0,0.0,0.0,0.0,-25.173064820642047,0.0,0.0,0.0,0.0,0.0
0.0,-25.173064820642047,0.0,0.0,0.0,0.0,-12.586532410321023,0.0,0.0,0.0,0.0,0.0
0.0,-25.173064820642047,0.0,0.0,0.0,0.0,-12.586532410321023,0.0,0.0,0.0,0.0,0.0
0.0,-25.173064820642047,0.0,0.0,0.0,0.0,-25.173064820642047,0.0,0.0,0.0,0.0,0.0
0.0,-25.173064820642047,0.0,0.0,0.0,0.0,-25.173064820642047,0.0,0.0,0.0,0.0,0.0
0.0,-12.586532410321023,0.0,0.0,0.0,0.0,-25.173064820642047,0.0,0.0,0.0,0.0,0.0
0.0,-12.586532410321023,0.0,0.0,0.0,0.0,-25.173064820642047,0.0,0.0,0.0,0.0,0.0
0.0,-12.586532410321023,0.0,0.0,0.0,0.0,-12.586532410321023,0.0,0.0,0.0,0.0,0.0
0.0,-25.173064820642047,0.0,0.0,0.0,0.0,-0.0,0.0,0.0,0.0,0.0,0.0
0.0,-25.173064820642047,0.0,0.0,0.0,0.0,-0.0,0.0,0.0,0.0,0.0,0.0
0.0,-25.173064820642047,0.0,0.0,0.0,0.0,-12.586532410321023,0.0,0.0,0.0,0.0,0.0
0.0,-25.173064820642047,0.0,0.0,0.0,0.0,-12.586532410321023,0.0,0.0,0.0,0.0,0.0
0.0,-25.173064820642047,0.0,0.0,0.0,0.0,-12.586532410321023,0.0,0.0,0.0,0.0,0.0
0.0,-25.173064820642047,0.0,0.0,0.0,0.0,-0.0,0.0,0.0,0.0,0.0,0.0
0.0,-37.75959723096307,0.0,0.0,0.0,0.0,-0.0,0.0,0.0,0.0,0.0,0.0
0.0,-37.75959723096307,0.0,0.0,0.0,0.0,-0.0,0.0,0.0,0.0,0.0,0.0
0.0,-25.173064820642047,0.0,0.0,0.0,0.0,-0.0,0.0,0.0,0.0,0.0,0.0
0.0,-37.75959723096307,0.0,0.0,0.0,0.0,-0.0,0.0,0.0,0.0,0.0,0.0
0.0,-37.75959723096307,0.0,0.0,0.0,0.0,-0.0,0.0,0.0,0.0,0.0,0.0
0.0,-37.75959723096307,0.0,0.0,0.0,0.0,-0.0,0.0,0.0,0.0,0.0,0.0
0.0,-37.75959723096307,0.0,0.0,0.0,0.0,12.586532410321023,0.0,0.0,0.0,0.0,0.0
0.0,-37.75959723096307,0.0,0.0,0.0,0.0,-0.0,0.0,0.0,0.0,0.0,0.0
0.0,-37.75959723096307,0.0,0.0,0.0,0.0,-0.0,0.0,0.0,0.0,0.0,0.0
0.0,-37.75959723096307,0.0,0.0,0.0,0.0,-0.0,0.0,0.0,0.0,0.0,0.0
0.0,-37.75959723096307,0.0,0.0,0.0,0.0,-0.0,0.0,0.0,0.0,0.0,0.0
0.0,-37.75959723096307,0.0,0.0,0.0,0.0,-0.0,0.0,0.0,0.0,0.0,0.0
0.0,-37.75959723096307,0.0,0.0,0.0,0.0,-0.0,0.0,0.0,0.0,0.0,0.0
0.0,-25.173064820642047,0.0,0.0,0.0,0.0,-0.0,0.0,0.0,0.0,0.0,0.0
0.0,-37.75959723096307,0.0,0.0,0.0,0.0,12.586532410321023,0.0,0.0,0.0,0.0,0.0
0.0,-37.75959723096307,0.0,0.0,0.0,0.0,12.586532410321023,0.0,0.0,0.0,0.0,0.0
0.0,-50.346129641284094,0.0,0.0,0.0,0.0,12.586532410321023,0.0,0.0,0.0,0.0,0.0
0.0,-50.346129641284094,0.0,0.0,0.0,0.0,12.586532410321023,0.0,0.0,0.0,0.0,0.0
0.0,-37.75959723096307,0.0,0.0,0.0,0.0,12.586532410321023,0.0,0.0,0.0,0.0,0.0
0.0,-37.75959723096307,0.0,0.0,0.0,0.0,12.586532410321023,0.0,0.0,0.0,0.0,0.0
0.0,-37.75959723096307,0.0,0.0,0.0,0.0,12.586532410321023,0.0,0.0,0.0,0.0,0.0
0.0,-37.75959723096307,0.0,0.0,0.0,0.0,12.586532410321023,0.0,0.0,0.0,0.0,0.0
0.0,-37.75959723096307,0.0,0.0,0.0,0.0,12.586532410321023,0.0,0.0,0.0,0.0,0.0
0.0,-37.75959723096307,0.0,0.0,0.0,0.0,12.586532410321023,0.0,0.0,0.0,0.0,0.0
0.0,-25.173064820642047,0.0,0.0,0.0,0.0,12.586532410321023,0.0,0.0,0.0,0.0,0.0
0.0,-0.0,0.0,0.0,0.0,0.0,-0.0,0.0,0.0,0.0,0.0,0.0
0.0,25.173064820642047,0.0,0.0,0.0,0.0,-0.0,0.0,0.0,0.0,0.0,0.0
0.0,37.75959723096307,0.0,0.0,0.0,0.0,-0.0,0.0,0.0,0.0,0.0,0.0
0.0,62.93266205160512,0.0,0.0,0.0,0.0,-0.0,0.0,0.0,0.0,0.0,0.0
0.0,75.51919446192613,0.0,0.0,0.0,0.0,-12.586532410321023,0.0,0.0,0.0,0.0,0.0
0.0,75.51919446192613,0.0,0.0,0.0,0.0,-37.75959723096307,0.0,0.0,0.0,0.0,0.0
0.0,88.10572687224716,0.0,0.0,0.0,0.0,-37.75959723096307,0.0,0.0,0.0,0.0,0.0
0.0,100.69225928256819,0.0,0.0,0.0,0.0,-37.75959723096307,0.0,0.0,0.0,0.0,0.0
0.0,100.69225928256819,0.0,0.0,0.0,0.0,-37.75959723096307,0.0,0.0,0.0,0.0,0.0
0.0,100.69225928256819,0.0,0.0,0.0,0.0,-50.346129641284094,0.0,0.0,0.0,0.0,0.0
0.0,100.69225928256819,0.0,0.0,0.0,0.0,-50.346129641284094,0.0,0.0,0.0,0.0,0.0
0.0,88.10572687224716,0.0,0.0,0.0,0.0,-50.346129641284094,0.0,0.0,0.0,0.0,0.0
0.0,88.10572687224716,0.0,0.0,0.0,0.0,-50.346129641284094,0.0,0.0,0.0,0.0,0.0
0.0,88.10572687224716,0.0,0.0,0.0,0.0,-37.75959723096307,0.0,0.0,0.0,0.0,0.0
0.0,100.69225928256819,0.0,0.0,0.0,0.0,-37.75959723096307,0.0,0.0,0.0,0.0,0.0
0.0,100.69225928256819,0.0,0.0,0.0,0.0,-37.75959723096307,0.0,0.0,0.0,0.0,0.0
0.0,88.10572687224716,0.0,0.0,0.0,0.0,-37.75959723096307,0.0,0.0,0.0,0.0,0.0
0.0,88.10572687224716,0.0,0.0,0.0,0.0,-37.75959723096307,0.0,0.0,0.0,0.0,0.0
0.0,88.10572687224716,0.0,0.0,0.0,0.0,-37.75959723096307,0.0,0.0,0.0,0.0,0.0
0.0,88.10572687224716,0.0,0.0,0.0,0.0,-25.173064820642047,0.0,0.0,0.0,0.0,0.0
0.0,88.10572687224716,0.0,0.0,0.0,0.0,-25.173064820642047,0.0,0.0,0.0,0.0,0.0
0.0,75.51919446192613,0.0,0.0,0.0,0.0,-25.173064820642047,0.0,0.0,0.0,0.0,0.0
0.0,75.51919446192613,0.0,0.0,0.0,0.0,-12.586532410321023,0.0,0.0,0.0,0.0,0.0
0.0,75.51919446192613,0.0,0.0,0.0,0.0,-12.586532410321023,0.0,0.0,0.0,0.0,0.0
0.0,75.51919446192613,0.0,0.0,0.0,0.0,-12.586532410321023,0.0,0.0,0.0,0.0,0.0
0.0,62.93266205160512,0.0,0.0,0.0,0.0,-12.586532410321023,0.0,0.0,0.0,0.0,0.0
0.0,62.93266205160512,0.0,0.0,0.0,0.0,-0.0,0.0,0.0,0.0,0.0,0.0
0.0,62.93266205160512,0.0,0.0,0.0,0.0,-0.0,0.0,0.0,0.0,0.0,0.0
0.0,75.51919446192613,0.0,0.0,0.0,0.0,-0.0,0.0,0.0,0.0,0.0,0.0
0.0,75.51919446192613,0.0,0.0,0.0,0.0,-0.0,0.0,0.0,0.0,0.0,0.0
0.0,75.51919446192613,0.0,0.0,0.0,0.0,-0.0,0.0,0.0,0.0,0.0,0.0
0.0,75.51919446192613,0.0,0.0,0.0,0.0,12.586532410321023,0.0,0.0,0.0,0.0,0.0
0.0,100.69225928256819,0.0,0.0,0.0,0.0,12.586532410321023,0.0,0.0,0.0,0.0,0.0
0.0,113.27879169288921,0.0,0.0,0.0,0.0,12.586532410321023,0.0,0.0,0.0,0.0,0.0
0.0,113.27879169288921,0.0,0.0,0.0,0.0,25.173064820642047,0.0,0.0,0.0,0.0,0.0
0.0,125.86532410321024,0.0,0.0,0.0,0.0,25.173064820642047,0.0,0.0,0.0,0.0,0.0
0.0,138.45185651353125,0.0,0.0,0.0,0.0,37.75959723096307,0.0,0.0,0.0,0.0,0.0
0.0,163.6249213341733,0.0,0.0,0.0,0.0,50.346129641284094,0.0,0.0,0.0,0.0,0.0
0.0,201.38451856513637,0.0,0.0,0.0,0.0,50.346129641284094,0.0,0.0,0.0,0.0,0.0
0.0,213.9710509754574,0.0,0.0,0.0,0.0,37.75959723096307,0.0,0.0,0.0,0.0,0.0
0.0,226.55758338577843,0.0,0.0,0.0,0.0,25.173064820642047,0.0,0.0,0.0,0.0,0.0
0.0,226.55758338577843,0.0,0.0,0.0,0.0,-0.0,0.0,0.0,0.0,0.0,0.0
0.0,226.55758338577843,0.0,0.0,0.0,0.0,-12.586532410321023,0.0,0.0,0.0,0.0,0.0
0.0,213.9710509754574,0.0,0.0,0.0,0.0,-37.75959723096307,0.0,0.0,0.0,0.0,0.0
0.0,201.38451856513637,0.0,0.0,0.0,0.0,-62.93266205160512,0.0,0.0,0.0,0.0,0.0
0.0,188.79798615481536,0.0,0.0,0.0,0.0,-75.51919446192613,0.0,0.0,0.0,0.0,0.0
0.0,176.21145374449432,0.0,0.0,0.0,0.0,-62.93266205160512,0.0,0.0,0.0,0.0,0.0
0.0,163.6249213341733,0.0,0.0,0.0,0.0,-62.93266205160512,0.0,0.0,0.0,0.0,0.0
0.0,138.45185651353125,0.0,0.0,0.0,0.0,-50.346129641284094,0.0,0.0,0.0,0.0,0.0
0.0,113.27879169288921,0.0,0.0,0.0,0.0,-50.346129641284094,0.0,0.0,0.0,0.0,0.0
0.0,88.10572687224716,0.0,0.0,0.0,0.0,-37.75959723096307,0.0,0.0,0.0,0.0,0.0
0.0,62.93266205160512,0.0,0.0,0.0,0.0,-25.173064820642047,0.0,0.0,0.0,0.0,0.0
0.0,50.346129641284094,0.0,0.0,0.0,0.0,-12.586532410321023,0.0,0.0,0.0,0.0,0.0
0.0,50.346129641284094,0.0,0.0,0.0,0.0,-0.0,0.0,0.0,0.0,0.0,0.0
0.0,50.346129641284094,0.0,0.0,0.0,0.0,12.586532410321023,0.0,0.0,0.0,0.0,0.0
0.0,50.346129641284094,0.0,0.0,0.0,0.0,12.586532410321023,0.0,0.0,0.0,0.0,0.0
0.0,37.75959723096307,0.0,0.0,0.0,0.0,25.173064820642047,0.0,0.0,0.0,0.0,0.0
0.0,37.75959723096307,0.0,0.0,0.0,0.0,25.173064820642047,0.0,0.0,0.0,0.0,0.0
0.0,50.346129641284094,0.0,0.0,0.0,0.0,37.75959723096307,0.0,0.0,0.0,0.0,0.0
0.0,50.346129641284094,0.0,0.0,0.0,0.0,37.75959723096307,0.0,0.0,0.0,0.0,0.0
0.0,50.346129641284094,0.0,0.0,0.0,0.0,37.75959723096307,0.0,0.0,0.0,0.0,0.0
0.0,75.51919446192613,0.0,0.0,0.0,0.0,37.75959723096307,0.0,0.0,0.0,0.0,0.0
0.0,138.45185651353125,0.0,0.0,0.0,0.0,37.75959723096307,0.0,0.0,0.0,0.0,0.0
0.0,176.21145374449432,0.0,0.0,0.0,0.0,37.75959723096307,0.0,0.0,0.0,0.0,0.0
0.0,251.73064820642048,0.0,0.0,0.0,0.0,37.75959723096307,0.0,0.0,0.0,0.0,0.0
0.0,415.35556954059376,0.0,0.0,0.0,0.0,37.75959723096307,0.0,0.0,0.0,0.0,0.0
0.0,692.2592825676563,0.0,0.0,0.0,0.0,62.93266205160512,0.0,0.0,0.0,0.0,0.0
0.0,1082.4417872876081,0.0,0.0,0.0,0.0,62.93266205160512,0.0,0.0,0.0,0.0,0.0
0.0,1510.383889238523,0.0,0.0,0.0,0.0,-37.75959723096307,0.0,0.0,0.0,0.0,0.0
0.0,1409.6916299559546,0.0,0.0,0.0,0.0,-226.55758338577843,0.0,0.0,0.0,0.0,0.0
0.0,1422.2781623662756,0.0,0.0,0.0,0.0,-440.52863436123585,0.0,0.0,0.0,0.0,0.0
0.0,1006.9225928256819,0.0,0.0,0.0,0.0,-717.4323473882984,0.0,0.0,0.0,0.0,0.0
0.0,528.634361233483,0.0,0.0,0.0,0.0,-1120.201384518571,0.0,0.0,0.0,0.0,0.0
0.0,213.9710509754574,0.0,0.0,0.0,0.0,-1271.2397734424233,0.0,0.0,0.0,0.0,0.0
0.0,100.69225928256819,0.0,0.0,0.0,0.0,-1258.6532410321024,0.0,0.0,0.0,0.0,0.0
0.0,12.586532410321023,0.0,0.0,0.0,0.0,-1032.0956576463238,0.0,0.0,0.0,0.0,0.0
0.0,-37.75959723096307,0.0,0.0,0.0,0.0,-730.0188797986193,0.0,0.0,0.0,0.0,0.0
0.0,-25.173064820642047,0.0,0.0,0.0,0.0,-440.52863436123585,0.0,0.0,0.0,0.0,0.0
0.0,-25.173064820642047,0.0,0.0,0.0,0.0,-213.9710509754574,0.0,0.0,0.0,0.0,0.0
0.0,-37.75959723096307,0.0,0.0,0.0,0.0,-62.93266205160512,0.0,0.0,0.0,0.0,0.0
0.0,-37.75959723096307,0.0,0.0,0.0,0.0,25.173064820642047,0.0,0.0,0.0,0.0,0.0
0.0,-25.173064820642047,0.0,0.0,0.0,0.0,75.51919446192613,0.0,0.0,0.0,0.0,0.0
0.0,-37.75959723096307,0.0,0.0,0.0,0.0,100.69225928256819,0.0,0.0,0.0,0.0,0.0
0.0,-37.75959723096307,0.0,0.0,0.0,0.0,100.69225928256819,0.0,0.0,0.0,0.0,0.0
0.0,-25.173064820642047,0.0,0.0,0.0,0.0,113.27879169288921,0.0,0.0,0.0,0.0,0.0
0.0,-25.173064820642047,0.0,0.0,0.0,0.0,113.27879169288921,0.0,0.0,0.0,0.0,0.0
0.0,-25.173064820642047,0.0,0.0,0.0,0.0,125.86532410321024,0.0,0.0,0.0,0.0,0.0
0.0,-25.173064820642047,0.0,0.0,0.0,0.0,125.86532410321024,0.0,0.0,0.0,0.0,0.0
0.0,-25.173064820642047,0.0,0.0,0.0,0.0,125.86532410321024,0.0,0.0,0.0,0.0,0.0
0.0,-25.173064820642047,0.0,0.0,0.0,0.0,125.86532410321024,0.0,0.0,0.0,0.0,0.0
0.0,-25.173064820642047,0.0,0.0,0.0,0.0,138.45185651353125,0.0,0.0,0.0,0.0,0.0
