nan,62.919463087248644,-88.0872483221481,nan,nan,nan,nan,nan,-75.50335570469838,nan,nan,50.33557046979892
nan,62.919463087248644,-100.67114093959783,-0.0,-37.75167785234919,nan,nan,25.16778523489946,-57.88590604026868,nan,nan,37.75167785234919
nan,12.58389261744973,-100.67114093959783,-12.58389261744973,-25.16778523489946,nan,314.5973154362432,25.16778523489946,-40.26845637583917,nan,nan,25.16778523489946
-88.0872483221481,-37.75167785234919,-100.67114093959783,-12.58389261744973,-25.16778523489946,nan,-12.58389261744973,12.58389261744973,-22.651006711409476,-25.16778523489946,-37.75167785234919,12.58389261744973
-88.0872483221481,-88.0872483221481,-100.67114093959783,-0.0,-25.16778523489946,25.16778523489946,-12.58389261744973,12.58389261744973,-5.033557046979963,-25.16778523489946,-37.75167785234919,-0.0
-75.50335570469838,-138.422818791947,-100.67114093959783,-0.0,-25.16778523489946,12.58389261744973,-12.58389261744973,12.58389261744973,12.58389261744973,-25.16778523489946,-37.75167785234919,-12.58389261744973
-88.0872483221481,-138.422818791947,-100.67114093959783,-0.0,-25.16778523489946,12.58389261744973,53.48154362416135,12.58389261744973,12.58389261744973,-25.16778523489946,-37.75167785234919,-12.58389261744973
-88.0872483221481,-138.422818791947,-88.0872483221481,-0.0,-25.16778523489946,12.58389261744973,119.54697986577243,-0.0,-0.0,-12.58389261744973,-37.75167785234919,-12.58389261744973
-88.0872483221481,-151.00671140939676,-88.0872483221481,-0.0,-25.16778523489946,12.58389261744973,185.6124161073835,-0.0,-0.0,-12.58389261744973,-37.75167785234919,-12.58389261744973
-88.0872483221481,-151.00671140939676,-75.50335570469838,-0.0,-25.16778523489946,12.58389261744973,251.67785234899458,-0.0,-0.0,-12.58389261744973,-37.75167785234919,-12.58389261744973
-88.0872483221481,-138.422818791947,-62.919463087248644,-0.0,-25.16778523489946,12.58389261744973,251.67785234899458,-0.0,-0.0,-12.58389261744973,-37.75167785234919,-12.58389261744973
-75.50335570469838,-138.422818791947,-50.33557046979892,-0.0,-25.16778523489946,12.58389261744973,264.2617449664443,-0.0,-0.0,-12.58389261744973,-37.75167785234919,-12.58389261744973
-75.50335570469838,-138.422818791947,-37.75167785234919,-0.0,-25.16778523489946,12.58389261744973,264.2617449664443,-0.0,-0.0,-12.58389261744973,-37.75167785234919,-12.58389261744973
-62.919463087248644,-125.83892617449729,-25.16778523489946,-0.0,-25.16778523489946,12.58389261744973,276.845637583894,-0.0,-0.0,-12.58389261744973,-37.75167785234919,-12.58389261744973
-50.33557046979892,-100.67114093959783,-12.58389261744973,-0.0,-25.16778523489946,12.58389261744973,276.845637583894,25.16778523489946,-12.58389261744973,-12.58389261744973,-25.16778523489946,-12.58389261744973
-37.75167785234919,-75.50335570469838,-12.58389261744973,-0.0,-25.16778523489946,12.58389261744973,276.845637583894,62.919463087248644,-12.58389261744973,-12.58389261744973,-25.16778523489946,-12.58389261744973
-25.16778523489946,-62.919463087248644,-0.0,-0.0,-25.16778523489946,12.58389261744973,276.845637583894,138.422818791947,-12.58389261744973,-12.58389261744973,-25.16778523489946,-12.58389261744973
-12.58389261744973,-37.75167785234919,-0.0,-0.0,-25.16778523489946,-0.0,276.845637583894,251.67785234899458,-12.58389261744973,-12.58389261744973,-25.16778523489946,-12.58389261744973
-0.0,-12.58389261744973,-0.0,-0.0,-25.16778523489946,-0.0,264.2617449664443,352.3489932885924,12.58389261744973,-12.58389261744973,-25.16778523489946,-0.0
-0.0,-0.0,-0.0,-0.0,-25.16778523489946,-0.0,251.67785234899458,465.60402684563996,25.16778523489946,-12.58389261744973,-25.16778523489946,-0.0
12.58389261744973,12.58389261744973,-0.0,-0.0,-25.16778523489946,-0.0,226.51006711409514,528.5234899328887,62.919463087248644,-12.58389261744973,-25.16778523489946,-0.0
25.16778523489946,37.75167785234919,-0.0,-0.0,-25.16778523489946,-0.0,188.75838926174595,553.691275167788,125.83892617449729,-12.58389261744973,-25.16778523489946,-0.0
25.16778523489946,50.33557046979892,-0.0,-0.0,-12.58389261744973,-0.0,163.59060402684648,503.35570469798915,176.1744966442962,-12.58389261744973,-25.16778523489946,-0.0
25.16778523489946,62.919463087248644,-0.0,-0.0,-12.58389261744973,-0.0,125.83892617449729,339.7651006711427,213.9261744966454,-12.58389261744973,-25.16778523489946,-0.0
25.16778523489946,62.919463087248644,-0.0,-0.0,-12.58389261744973,-0.0,100.67114093959783,113.25503355704757,-465.60402684563996,-0.0,-25.16778523489946,-0.0
25.16778523489946,62.919463087248644,-0.0,-0.0,-12.58389261744973,-0.0,75.50335570469838,-176.1744966442962,-453.0201342281903,-0.0,-25.16778523489946,-0.0
25.16778523489946,62.919463087248644,-0.0,-0.0,-12.58389261744973,-0.0,50.33557046979892,-478.1879194630897,-440.4362416107405,-0.0,-25.16778523489946,-0.0
37.75167785234919,62.919463087248644,-0.0,-0.0,-12.58389261744973,-0.0,25.16778523489946,-717.2818791946346,-515.9395973154388,-0.0,-25.16778523489946,-0.0
37.75167785234919,75.50335570469838,-0.0,-0.0,-12.58389261744973,-0.0,12.58389261744973,-943.7919463087297,-515.9395973154388,-0.0,-25.16778523489946,-0.0
25.16778523489946,75.50335570469838,-0.0,-0.0,-12.58389261744973,-0.0,-0.0,-1170.3020134228248,-515.9395973154388,-0.0,-25.16778523489946,-0.0
25.16778523489946,75.50335570469838,-0.0,-0.0,-12.58389261744973,-0.0,-12.58389261744973,-1459.7315436241686,-515.9395973154388,-0.0,-25.16778523489946,-0.0
25.16778523489946,75.50335570469838,-0.0,-0.0,-25.16778523489946,-0.0,-12.58389261744973,-1648.4899328859144,-515.9395973154388,-0.0,-25.16778523489946,-0.0
25.16778523489946,75.50335570469838,-0.0,-0.0,-25.16778523489946,-0.0,-12.58389261744973,-1635.9060402684647,-528.5234899328887,-0.0,-25.16778523489946,-0.0
25.16778523489946,62.919463087248644,-0.0,-0.0,-12.58389261744973,-0.0,-12.58389261744973,-1459.7315436241686,-553.691275167788,-0.0,-25.16778523489946,-0.0
25.16778523489946,62.919463087248644,-0.0,-0.0,-12.58389261744973,-0.0,-25.16778523489946,-1132.5503355704757,-817.9530201342324,-0.0,-12.58389261744973,-0.0
25.16778523489946,75.50335570469838,-0.0,-0.0,-12.58389261744973,-0.0,-25.16778523489946,-616.6107382550367,-1031.8791946308777,-0.0,-12.58389261744973,-0.0
25.16778523489946,75.50335570469838,-0.0,-0.0,-12.58389261744973,-0.0,-25.16778523489946,-75.50335570469838,-1057.0469798657773,-0.0,-12.58389261744973,-0.0
25.16778523489946,75.50335570469838,-0.0,-0.0,-12.58389261744973,-0.0,-25.16778523489946,289.42953020134377,-931.2080536912799,12.58389261744973,-12.58389261744973,-0.0
25.16778523489946,62.919463087248644,-0.0,-0.0,-12.58389261744973,-0.0,-25.16778523489946,427.8523489932908,-666.9463087248356,12.58389261744973,-12.58389261744973,-0.0
25.16778523489946,62.919463087248644,-0.0,-0.0,-12.58389261744973,-0.0,-25.16778523489946,390.1006711409416,-176.1744966442962,12.58389261744973,-0.0,-0.0
25.16778523489946,62.919463087248644,-0.0,-0.0,-12.58389261744973,-0.0,-25.16778523489946,289.42953020134377,339.7651006711427,25.16778523489946,-0.0,12.58389261744973
12.58389261744973,62.919463087248644,-0.0,12.58389261744973,-12.58389261744973,-0.0,-25.16778523489946,176.1744966442962,666.9463087248356,25.16778523489946,-0.0,12.58389261744973
12.58389261744973,62.919463087248644,-0.0,-0.0,-12.58389261744973,-0.0,-25.16778523489946,125.83892617449729,805.3691275167827,37.75167785234919,12.58389261744973,12.58389261744973
12.58389261744973,50.33557046979892,-12.58389261744973,-0.0,-12.58389261744973,-0.0,-25.16778523489946,138.422818791947,654.3624161073859,50.33557046979892,37.75167785234919,25.16778523489946
12.58389261744973,50.33557046979892,-12.58389261744973,-0.0,-12.58389261744973,-0.0,-25.16778523489946,151.00671140939676,377.5167785234919,62.919463087248644,50.33557046979892,25.16778523489946
12.58389261744973,50.33557046979892,-12.58389261744973,-0.0,-12.58389261744973,-0.0,-25.16778523489946,151.00671140939676,125.83892617449729,75.50335570469838,50.33557046979892,37.75167785234919
12.58389261744973,37.75167785234919,-12.58389261744973,-0.0,-12.58389261744973,-0.0,-25.16778523489946,151.00671140939676,-12.58389261744973,75.50335570469838,50.33557046979892,50.33557046979892
12.58389261744973,37.75167785234919,-0.0,-0.0,-12.58389261744973,-0.0,-25.16778523489946,151.00671140939676,-37.75167785234919,88.0872483221481,62.919463087248644,50.33557046979892
-0.0,37.75167785234919,-12.58389261744973,-0.0,-12.58389261744973,-0.0,-25.16778523489946,151.00671140939676,-25.16778523489946,75.50335570469838,50.33557046979892,50.33557046979892
-0.0,37.75167785234919,-12.58389261744973,-0.0,-12.58389261744973,-0.0,-12.58389261744973,163.59060402684648,-25.16778523489946,50.33557046979892,37.75167785234919,62.919463087248644
-12.58389261744973,25.16778523489946,-12.58389261744973,-0.0,-12.58389261744973,-0.0,-12.58389261744973,163.59060402684648,-12.58389261744973,37.75167785234919,25.16778523489946,62.919463087248644
-12.58389261744973,25.16778523489946,-12.58389261744973,-0.0,-12.58389261744973,-0.0,-12.58389261744973,163.59060402684648,-12.58389261744973,37.75167785234919,25.16778523489946,50.33557046979892
-12.58389261744973,25.16778523489946,-12.58389261744973,-0.0,-12.58389261744973,-0.0,-12.58389261744973,151.00671140939676,-0.0,37.75167785234919,25.16778523489946,50.33557046979892
-12.58389261744973,12.58389261744973,-25.16778523489946,-0.0,-12.58389261744973,-0.0,-12.58389261744973,125.83892617449729,12.58389261744973,25.16778523489946,25.16778523489946,50.33557046979892
-12.58389261744973,12.58389261744973,-25.16778523489946,-0.0,-0.0,-0.0,-12.58389261744973,100.67114093959783,12.58389261744973,12.58389261744973,12.58389261744973,50.33557046979892
-12.58389261744973,12.58389261744973,-25.16778523489946,-12.58389261744973,-0.0,-0.0,-12.58389261744973,75.50335570469838,12.58389261744973,12.58389261744973,-0.0,50.33557046979892
-12.58389261744973,-0.0,-25.16778523489946,-12.58389261744973,-0.0,-0.0,-0.0,62.919463087248644,25.16778523489946,12.58389261744973,-0.0,37.75167785234919
-0.0,-0.0,-25.16778523489946,-25.16778523489946,-0.0,-0.0,-0.0,62.919463087248644,12.58389261744973,-0.0,-0.0,25.16778523489946
-0.0,12.58389261744973,-25.16778523489946,-37.75167785234919,12.58389261744973,-0.0,-0.0,50.33557046979892,-12.58389261744973,-0.0,-0.0,25.16778523489946
-0.0,25.16778523489946,-25.16778523489946,-50.33557046979892,12.58389261744973,-0.0,-0.0,50.33557046979892,-37.75167785234919,-0.0,-0.0,25.16778523489946
-0.0,12.58389261744973,-25.16778523489946,-62.919463087248644,12.58389261744973,-0.0,-0.0,50.33557046979892,-62.919463087248644,-0.0,-12.58389261744973,12.58389261744973
-0.0,12.58389261744973,-25.16778523489946,-88.0872483221481,25.16778523489946,-0.0,-0.0,50.33557046979892,-88.0872483221481,-12.58389261744973,-25.16778523489946,12.58389261744973
-0.0,12.58389261744973,-37.75167785234919,-100.67114093959783,37.75167785234919,12.58389261744973,-0.0,50.33557046979892,-100.67114093959783,-12.58389261744973,-25.16778523489946,-0.0
-0.0,12.58389261744973,-50.33557046979892,-113.25503355704757,50.33557046979892,25.16778523489946,-12.58389261744973,62.919463087248644,-113.25503355704757,-12.58389261744973,-25.16778523489946,-0.0
-0.0,25.16778523489946,-88.0872483221481,-113.25503355704757,50.33557046979892,37.75167785234919,-12.58389261744973,75.50335570469838,-113.25503355704757,-12.58389261744973,-25.16778523489946,-0.0
-12.58389261744973,12.58389261744973,-151.00671140939676,-125.83892617449729,37.75167785234919,37.75167785234919,-12.58389261744973,75.50335570469838,-125.83892617449729,-12.58389261744973,-25.16778523489946,-0.0
-37.75167785234919,12.58389261744973,-239.09395973154486,-125.83892617449729,37.75167785234919,37.75167785234919,-12.58389261744973,75.50335570469838,-125.83892617449729,-12.58389261744973,-25.16778523489946,-0.0
-62.919463087248644,-12.58389261744973,-302.0134228187935,-113.25503355704757,37.75167785234919,37.75167785234919,-12.58389261744973,75.50335570469838,-125.83892617449729,12.58389261744973,-25.16778523489946,-12.58389261744973
-100.67114093959783,-50.33557046979892,-364.93288590604215,-88.0872483221481,25.16778523489946,50.33557046979892,-12.58389261744973,75.50335570469838,-125.83892617449729,37.75167785234919,-25.16778523489946,-12.58389261744973
-151.00671140939676,-113.25503355704757,-364.93288590604215,-75.50335570469838,25.16778523489946,62.919463087248644,-12.58389261744973,75.50335570469838,-125.83892617449729,37.75167785234919,-100.67114093959783,-12.58389261744973
-188.75838926174595,-226.51006711409514,-302.0134228187935,-75.50335570469838,37.75167785234919,62.919463087248644,-12.58389261744973,88.0872483221481,-138.422818791947,-0.0,-239.09395973154486,-37.75167785234919
-264.2617449664443,-352.3489932885924,-213.9261744966454,-75.50335570469838,37.75167785234919,37.75167785234919,-0.0,88.0872483221481,-138.422818791947,-62.919463087248644,-364.93288590604215,-100.67114093959783
-377.5167785234919,-465.60402684563996,-125.83892617449729,-62.919463087248644,37.75167785234919,25.16778523489946,25.16778523489946,88.0872483221481,-151.00671140939676,-138.422818791947,-440.4362416107405,-226.51006711409514
-515.9395973154388,-591.4429530201372,-113.25503355704757,-50.33557046979892,37.75167785234919,25.16778523489946,75.50335570469838,100.67114093959783,-151.00671140939676,-213.9261744966454,-440.4362416107405,-314.5973154362432
-666.9463087248356,-704.6979865771848,-163.59060402684648,-37.75167785234919,25.16778523489946,12.58389261744973,176.1744966442962,100.67114093959783,-151.00671140939676,-314.5973154362432,-364.93288590604215,-327.18120805369296
-830.5369127516822,-780.2013422818832,-213.9261744966454,-25.16778523489946,12.58389261744973,12.58389261744973,302.0134228187935,100.67114093959783,-151.00671140939676,-402.68456375839133,-201.34228187919567,-264.2617449664443
-968.9597315436291,-830.5369127516822,-239.09395973154486,-12.58389261744973,12.58389261744973,-0.0,402.68456375839133,88.0872483221481,-151.00671140939676,-390.1006711409416,25.16778523489946,-88.0872483221481
-1019.2953020134281,-816.0170366546247,-314.5973154362432,-0.0,-0.0,-0.0,541.1073825503383,75.50335570469838,-163.59060402684648,-188.75838926174595,327.18120805369296,176.1744966442962
-956.3758389261794,-801.4971605575672,-427.8523489932908,-0.0,-0.0,-12.58389261744973,629.1946308724864,62.919463087248644,-176.1744966442962,163.59060402684648,666.9463087248356,440.4362416107405
-956.3758389261794,-786.9772844605101,-578.8590604026875,12.58389261744973,-0.0,-12.58389261744973,623.6017897091755,37.75167785234919,-188.75838926174595,515.9395973154388,968.9597315436291,679.5302013422854
-968.9597315436291,-772.4574083634526,-767.6174496644335,25.16778523489946,-0.0,-25.16778523489946,618.0089485458645,25.16778523489946,-201.34228187919567,704.6979865771848,1082.2147651006767,893.4563758389307
-918.6241610738302,-757.9375322663951,-943.7919463087297,25.16778523489946,-0.0,-25.16778523489946,612.4161073825535,-0.0,-213.9261744966454,729.8657718120843,994.1275167785286,1044.4630872483276
-767.6174496644335,-743.4176561693378,-906.0402684563805,25.16778523489946,-0.0,-37.75167785234919,606.8232662192424,-12.58389261744973,-226.51006711409514,692.1140939597351,880.872483221481,1031.8791946308777
-616.6107382550367,-728.8977800722806,-666.9463087248356,25.16778523489946,-0.0,-37.75167785234919,601.2304250559315,-37.75167785234919,-226.51006711409514,566.2751677852378,717.2818791946346,893.4563758389307
-490.77181208053946,-714.3779039752231,-339.7651006711427,25.16778523489946,-0.0,-37.75167785234919,595.6375838926206,-62.919463087248644,-226.51006711409514,390.1006711409416,515.9395973154388,717.2818791946346
-390.1006711409416,-699.8580278781657,-113.25503355704757,37.75167785234919,-0.0,-25.16778523489946,590.0447427293095,-88.0872483221481,-239.09395973154486,251.67785234899458,2680.369127516792,553.691275167788
-314.5973154362432,-685.3381517811082,-50.33557046979892,37.75167785234919,-12.58389261744973,-25.16778523489946,584.4519015659985,-100.67114093959783,-251.67785234899458,163.59060402684648,2604.865771812094,390.1006711409416
-339.7651006711427,-670.8182756840511,-62.919463087248644,75.50335570469838,-25.16778523489946,-37.75167785234919,578.8590604026875,-100.67114093959783,-251.67785234899458,88.0872483221481,2529.3624161073953,239.09395973154486
-415.2684563758411,-656.2983995869937,-88.0872483221481,151.00671140939676,-12.58389261744973,-37.75167785234919,339.7651006711427,-88.0872483221481,-251.67785234899458,25.16778523489946,2466.442953020147,125.83892617449729
-478.1879194630897,-641.7785234899362,-88.0872483221481,176.1744966442962,-0.0,-37.75167785234919,100.67114093959783,-75.50335570469838,-251.67785234899458,12.58389261744973,2453.859060402697,50.33557046979892
-490.77181208053946,-490.77181208053946,-88.0872483221481,138.422818791947,-0.0,-62.919463087248644,25.16778523489946,-62.919463087248644,-251.67785234899458,12.58389261744973,2453.859060402697,-0.0
-440.4362416107405,-490.77181208053946,-88.0872483221481,-12.58389261744973,-0.0,-138.422818791947,12.58389261744973,-37.75167785234919,-239.09395973154486,12.58389261744973,2453.859060402697,-12.58389261744973
-327.18120805369296,-515.9395973154388,-62.919463087248644,-302.0134228187935,-0.0,-188.75838926174595,176.1744966442962,-12.58389261744973,-213.9261744966454,12.58389261744973,2453.859060402697,-12.58389261744973
-163.59060402684648,-490.77181208053946,-12.58389261744973,-666.9463087248356,62.919463087248644,-138.422818791947,490.77181208053946,-0.0,-188.75838926174595,12.58389261744973,2453.859060402697,-25.16778523489946
-37.75167785234919,-377.5167785234919,12.58389261744973,-994.1275167785286,188.75838926174595,-0.0,492.869127516781,-0.0,-163.59060402684648,12.58389261744973,2453.859060402697,-25.16778523489946
37.75167785234919,-226.51006711409514,25.16778523489946,-1182.8859060402744,239.09395973154486,264.2617449664443,494.9664429530227,12.58389261744973,-138.422818791947,12.58389261744973,2453.859060402697,-25.16778523489946
75.50335570469838,-100.67114093959783,25.16778523489946,-1220.6375838926238,125.83892617449729,566.2751677852378,497.0637583892643,25.16778523489946,-113.25503355704757,25.16778523489946,2466.442953020147,-12.58389261744973
113.25503355704757,12.58389261744973,37.75167785234919,-1182.8859060402744,-25.16778523489946,792.785234899333,499.1610738255059,37.75167785234919,-75.50335570469838,25.16778523489946,2466.442953020147,-12.58389261744973
138.422818791947,100.67114093959783,50.33557046979892,-1082.2147651006767,-125.83892617449729,943.7919463087297,501.2583892617476,37.75167785234919,-62.919463087248644,25.16778523489946,2466.442953020147,-12.58389261744973
138.422818791947,176.1744966442962,50.33557046979892,-880.872483221481,-138.422818791947,1082.2147651006767,503.35570469798915,37.75167785234919,-37.75167785234919,25.16778523489946,2466.442953020147,-12.58389261744973
151.00671140939676,213.9261744966454,62.919463087248644,-641.7785234899362,-88.0872483221481,1208.053691275174,239.09395973154486,37.75167785234919,-25.16778523489946,25.16778523489946,2466.442953020147,-12.58389261744973
163.59060402684648,226.51006711409514,62.919463087248644,-415.2684563758411,-25.16778523489946,1195.4697986577244,75.50335570469838,37.75167785234919,-12.58389261744973,37.75167785234919,2479.0268456375966,-12.58389261744973
163.59060402684648,239.09395973154486,75.50335570469838,-251.67785234899458,-0.0,1019.2953020134281,-12.58389261744973,37.75167785234919,-0.0,37.75167785234919,2479.0268456375966,-12.58389261744973
163.59060402684648,251.67785234899458,75.50335570469838,-113.25503355704757,-0.0,717.2818791946346,-75.50335570469838,50.33557046979892,-0.0,37.75167785234919,2479.0268456375966,-12.58389261744973
176.1744966442962,264.2617449664443,88.0872483221481,-25.16778523489946,-0.0,427.8523489932908,-100.67114093959783,50.33557046979892,-0.0,50.33557046979892,2491.6107382550463,-12.58389261744973
176.1744966442962,276.845637583894,100.67114093959783,25.16778523489946,-0.0,226.51006711409514,-125.83892617449729,50.33557046979892,12.58389261744973,50.33557046979892,2491.6107382550463,-12.58389261744973
176.1744966442962,289.42953020134377,100.67114093959783,62.919463087248644,-0.0,88.0872483221481,-138.422818791947,50.33557046979892,12.58389261744973,50.33557046979892,2491.6107382550463,-0.0
188.75838926174595,302.0134228187935,100.67114093959783,75.50335570469838,-12.58389261744973,12.58389261744973,-151.00671140939676,50.33557046979892,12.58389261744973,50.33557046979892,2491.6107382550463,-0.0
201.34228187919567,314.5973154362432,113.25503355704757,88.0872483221481,-12.58389261744973,-37.75167785234919,-163.59060402684648,50.33557046979892,12.58389261744973,50.33557046979892,2491.6107382550463,-0.0
213.9261744966454,327.18120805369296,125.83892617449729,75.50335570469838,-12.58389261744973,-62.919463087248644,-176.1744966442962,50.33557046979892,12.58389261744973,50.33557046979892,2491.6107382550463,-0.0
226.51006711409514,339.7651006711427,138.422818791947,75.50335570469838,-0.0,-75.50335570469838,-188.75838926174595,50.33557046979892,25.16778523489946,50.33557046979892,2491.6107382550463,-12.58389261744973
226.51006711409514,352.3489932885924,151.00671140939676,88.0872483221481,-12.58389261744973,-88.0872483221481,-201.34228187919567,50.33557046979892,25.16778523489946,37.75167785234919,2479.0268456375966,-12.58389261744973
239.09395973154486,377.5167785234919,151.00671140939676,88.0872483221481,-12.58389261744973,-88.0872483221481,-213.9261744966454,50.33557046979892,25.16778523489946,37.75167785234919,2479.0268456375966,-12.58389261744973
251.67785234899458,390.1006711409416,163.59060402684648,75.50335570469838,-0.0,-88.0872483221481,-213.9261744966454,50.33557046979892,25.16778523489946,37.75167785234919,2479.0268456375966,-12.58389261744973
276.845637583894,415.2684563758411,176.1744966442962,75.50335570469838,-0.0,-88.0872483221481,-213.9261744966454,50.33557046979892,25.16778523489946,25.16778523489946,2466.442953020147,-12.58389261744973
289.42953020134377,440.4362416107405,188.75838926174595,75.50335570469838,-0.0,-88.0872483221481,-226.51006711409514,50.33557046979892,25.16778523489946,25.16778523489946,2466.442953020147,-25.16778523489946
314.5973154362432,465.60402684563996,213.9261744966454,75.50335570469838,-0.0,-88.0872483221481,-239.09395973154486,37.75167785234919,25.16778523489946,12.58389261744973,2453.859060402697,-25.16778523489946
327.18120805369296,490.77181208053946,226.51006711409514,75.50335570469838,-0.0,-88.0872483221481,-251.67785234899458,37.75167785234919,25.16778523489946,12.58389261744973,2453.859060402697,-25.16778523489946
352.3489932885924,515.9395973154388,239.09395973154486,62.919463087248644,-0.0,-75.50335570469838,-264.2617449664443,37.75167785234919,25.16778523489946,12.58389261744973,2453.859060402697,-37.75167785234919
364.93288590604215,553.691275167788,264.2617449664443,62.919463087248644,-0.0,-88.0872483221481,-276.845637583894,25.16778523489946,25.16778523489946,-0.0,2441.2751677852475,-37.75167785234919
390.1006711409416,578.8590604026875,289.42953020134377,62.919463087248644,-0.0,-88.0872483221481,-289.42953020134377,25.16778523489946,25.16778523489946,-12.58389261744973,2428.691275167798,-37.75167785234919
415.2684563758411,629.1946308724864,314.5973154362432,62.919463087248644,-0.0,-88.0872483221481,-302.0134228187935,25.16778523489946,12.58389261744973,-25.16778523489946,2416.107382550348,-50.33557046979892
453.0201342281903,666.9463087248356,339.7651006711427,75.50335570469838,-0.0,-75.50335570469838,-327.18120805369296,12.58389261744973,12.58389261744973,-37.75167785234919,2403.5234899328984,-62.919463087248644
478.1879194630897,717.2818791946346,377.5167785234919,75.50335570469838,-0.0,-75.50335570469838,-352.3489932885924,12.58389261744973,12.58389261744973,-50.33557046979892,2390.9395973154487,-75.50335570469838
515.9395973154388,780.2013422818832,402.68456375839133,75.50335570469838,-0.0,-75.50335570469838,-364.93288590604215,12.58389261744973,12.58389261744973,-62.919463087248644,2378.355704697999,-75.50335570469838
541.1073825503383,830.5369127516822,427.8523489932908,75.50335570469838,-0.0,-75.50335570469838,-390.1006711409416,12.58389261744973,12.58389261744973,-75.50335570469838,2365.771812080549,-88.0872483221481
566.2751677852378,880.872483221481,453.0201342281903,75.50335570469838,-0.0,-88.0872483221481,-415.2684563758411,12.58389261744973,12.58389261744973,-88.0872483221481,2353.187919463099,-88.0872483221481
591.4429530201372,931.2080536912799,478.1879194630897,75.50335570469838,-0.0,-88.0872483221481,-440.4362416107405,12.58389261744973,-0.0,-88.0872483221481,2353.187919463099,-88.0872483221481
604.026845637587,994.1275167785286,503.35570469798915,75.50335570469838,-0.0,-88.0872483221481,-478.1879194630897,12.58389261744973,-0.0,-100.67114093959783,2340.6040268456495,-100.67114093959783
629.1946308724864,1044.4630872483276,528.5234899328887,75.50335570469838,-0.0,-88.0872483221481,-503.35570469798915,12.58389261744973,-0.0,-100.67114093959783,2340.6040268456495,-100.67114093959783
641.7785234899362,1082.2147651006767,541.1073825503383,75.50335570469838,-0.0,-88.0872483221481,-541.1073825503383,12.58389261744973,-0.0,-100.67114093959783,2340.6040268456495,-100.67114093959783
641.7785234899362,1119.966442953026,553.691275167788,88.0872483221481,-0.0,-88.0872483221481,-578.8590604026875,-0.0,-0.0,-100.67114093959783,2340.6040268456495,-100.67114093959783
629.1946308724864,1157.718120805375,566.2751677852378,88.0872483221481,-0.0,-100.67114093959783,-604.026845637587,-0.0,-0.0,-100.67114093959783,2340.6040268456495,-100.67114093959783
616.6107382550367,1182.8859060402744,553.691275167788,88.0872483221481,-0.0,-100.67114093959783,-641.7785234899362,-0.0,-0.0,-88.0872483221481,2353.187919463099,-100.67114093959783
591.4429530201372,1195.4697986577244,541.1073825503383,88.0872483221481,-0.0,-100.67114093959783,-679.5302013422854,-0.0,-0.0,-88.0872483221481,2353.187919463099,-100.67114093959783
566.2751677852378,1208.053691275174,503.35570469798915,100.67114093959783,-0.0,-100.67114093959783,-704.6979865771848,-0.0,-0.0,-75.50335570469838,2365.771812080549,-88.0872483221481
528.5234899328887,1195.4697986577244,453.0201342281903,113.25503355704757,-0.0,-113.25503355704757,-729.8657718120843,-0.0,-0.0,-62.919463087248644,2378.355704697999,-75.50335570469838
478.1879194630897,1170.3020134228248,402.68456375839133,113.25503355704757,-0.0,-113.25503355704757,-755.0335570469838,-0.0,-0.0,-62.919463087248644,2378.355704697999,-62.919463087248644
440.4362416107405,1132.5503355704757,352.3489932885924,125.83892617449729,-0.0,-125.83892617449729,-780.2013422818832,-0.0,-0.0,-50.33557046979892,2390.9395973154487,-62.919463087248644
390.1006711409416,1069.630872483227,302.0134228187935,125.83892617449729,-0.0,-125.83892617449729,-780.2013422818832,-0.0,-0.0,-37.75167785234919,2403.5234899328984,-50.33557046979892
339.7651006711427,994.1275167785286,239.09395973154486,138.422818791947,-0.0,-125.83892617449729,-780.2013422818832,-0.0,-0.0,-25.16778523489946,2416.107382550348,-37.75167785234919
276.845637583894,906.0402684563805,188.75838926174595,151.00671140939676,-0.0,-125.83892617449729,-780.2013422818832,-0.0,-0.0,-12.58389261744973,2428.691275167798,-25.16778523489946
239.09395973154486,805.3691275167827,138.422818791947,151.00671140939676,-0.0,-138.422818791947,-767.6174496644335,-0.0,-0.0,-12.58389261744973,2428.691275167798,-12.58389261744973
201.34228187919567,692.1140939597351,100.67114093959783,151.00671140939676,-0.0,-151.00671140939676,-742.449664429534,-0.0,-0.0,-0.0,2441.2751677852475,-0.0
163.59060402684648,591.4429530201372,75.50335570469838,163.59060402684648,-12.58389261744973,-163.59060402684648,-704.6979865771848,-0.0,-0.0,-0.0,2441.2751677852475,12.58389261744973
113.25503355704757,490.77181208053946,37.75167785234919,176.1744966442962,-12.58389261744973,-163.59060402684648,-654.3624161073859,-0.0,-0.0,12.58389261744973,2453.859060402697,12.58389261744973
88.0872483221481,402.68456375839133,12.58389261744973,176.1744966442962,-12.58389261744973,-176.1744966442962,-591.4429530201372,-0.0,-0.0,12.58389261744973,2453.859060402697,12.58389261744973
50.33557046979892,314.5973154362432,-0.0,163.59060402684648,-12.58389261744973,-176.1744966442962,-503.35570469798915,-0.0,-0.0,12.58389261744973,2453.859060402697,25.16778523489946
37.75167785234919,251.67785234899458,-0.0,151.00671140939676,-0.0,-163.59060402684648,-440.4362416107405,-0.0,-0.0,25.16778523489946,2466.442953020147,25.16778523489946
25.16778523489946,188.75838926174595,-0.0,138.422818791947,-0.0,-176.1744966442962,-364.93288590604215,-0.0,-0.0,25.16778523489946,2466.442953020147,25.16778523489946
25.16778523489946,138.422818791947,-12.58389261744973,125.83892617449729,-0.0,-163.59060402684648,-289.42953020134377,-0.0,-0.0,25.16778523489946,2466.442953020147,25.16778523489946
12.58389261744973,100.67114093959783,-25.16778523489946,113.25503355704757,-0.0,-163.59060402684648,-226.51006711409514,-0.0,-0.0,25.16778523489946,2466.442953020147,25.16778523489946
12.58389261744973,75.50335570469838,-25.16778523489946,100.67114093959783,-0.0,-151.00671140939676,-188.75838926174595,-0.0,-0.0,25.16778523489946,2466.442953020147,25.16778523489946
-0.0,50.33557046979892,-25.16778523489946,75.50335570469838,-0.0,-138.422818791947,-125.83892617449729,-0.0,-0.0,25.16778523489946,2466.442953020147,25.16778523489946
-0.0,37.75167785234919,-37.75167785234919,62.919463087248644,-0.0,-125.83892617449729,-88.0872483221481,-0.0,-12.58389261744973,25.16778523489946,2466.442953020147,25.16778523489946
-0.0,25.16778523489946,-37.75167785234919,37.75167785234919,-0.0,-113.25503355704757,-62.919463087248644,-0.0,-12.58389261744973,25.16778523489946,2466.442953020147,25.16778523489946
12.58389261744973,12.58389261744973,-37.75167785234919,25.16778523489946,-0.0,-88.0872483221481,-25.16778523489946,-0.0,-12.58389261744973,25.16778523489946,2466.442953020147,25.16778523489946
-0.0,12.58389261744973,-37.75167785234919,12.58389261744973,-0.0,-62.919463087248644,-12.58389261744973,-0.0,-12.58389261744973,25.16778523489946,2466.442953020147,25.16778523489946
-0.0,12.58389261744973,-25.16778523489946,-0.0,-0.0,-50.33557046979892,-12.58389261744973,-0.0,-12.58389261744973,25.16778523489946,2466.442953020147,25.16778523489946
-0.0,-0.0,-25.16778523489946,-12.58389261744973,-0.0,-50.33557046979892,-0.0,-0.0,-12.58389261744973,12.58389261744973,2453.859060402697,25.16778523489946
-0.0,-0.0,-37.75167785234919,-12.58389261744973,-0.0,-37.75167785234919,-0.0,-0.0,-12.58389261744973,12.58389261744973,2453.859060402697,25.16778523489946
-0.0,-0.0,-37.75167785234919,-12.58389261744973,-0.0,-25.16778523489946,-0.0,-0.0,-0.0,12.58389261744973,2453.859060402697,25.16778523489946
-0.0,-0.0,-37.75167785234919,-12.58389261744973,12.58389261744973,-12.58389261744973,-0.0,-0.0,-0.0,12.58389261744973,2453.859060402697,25.16778523489946
-0.0,12.58389261744973,-37.75167785234919,-25.16778523489946,12.58389261744973,-12.58389261744973,12.58389261744973,-0.0,-0.0,12.58389261744973,2453.859060402697,25.16778523489946
-0.0,12.58389261744973,-37.75167785234919,-25.16778523489946,12.58389261744973,-0.0,12.58389261744973,-0.0,-0.0,12.58389261744973,2453.859060402697,25.16778523489946
-0.0,12.58389261744973,-37.75167785234919,-25.16778523489946,12.58389261744973,-0.0,12.58389261744973,-0.0,-0.0,-0.0,2441.2751677852475,25.16778523489946
12.58389261744973,-0.0,-37.75167785234919,-25.16778523489946,12.58389261744973,-0.0,12.58389261744973,-0.0,-0.0,-0.0,2441.2751677852475,12.58389261744973
-0.0,-0.0,-37.75167785234919,-25.16778523489946,12.58389261744973,-0.0,12.58389261744973,-0.0,-0.0,-0.0,2441.2751677852475,12.58389261744973
-0.0,-0.0,-37.75167785234919,-25.16778523489946,12.58389261744973,-0.0,12.58389261744973,-0.0,-0.0,-0.0,2441.2751677852475,12.58389261744973
-0.0,-0.0,-37.75167785234919,-25.16778523489946,12.58389261744973,-0.0,12.58389261744973,-0.0,-0.0,-0.0,2441.2751677852475,12.58389261744973
-0.0,-0.0,-50.33557046979892,-25.16778523489946,12.58389261744973,-0.0,12.58389261744973,-0.0,-0.0,-0.0,2441.2751677852475,12.58389261744973
-0.0,-0.0,-50.33557046979892,-12.58389261744973,12.58389261744973,-0.0,12.58389261744973,-0.0,-0.0,-0.0,2441.2751677852475,-0.0
-0.0,-0.0,-37.75167785234919,-12.58389261744973,12.58389261744973,-0.0,12.58389261744973,-0.0,-0.0,-0.0,2441.2751677852475,-0.0
-0.0,-0.0,-37.75167785234919,-12.58389261744973,12.58389261744973,-0.0,12.58389261744973,-0.0,-0.0,-0.0,2441.2751677852475,-0.0
-0.0,-0.0,-37.75167785234919,-12.58389261744973,-0.0,-0.0,12.58389261744973,-0.0,-0.0,-0.0,2441.2751677852475,12.58389261744973
-0.0,-12.58389261744973,-50.33557046979892,-25.16778523489946,12.58389261744973,-0.0,12.58389261744973,-0.0,-0.0,-0.0,2441.2751677852475,-0.0
-0.0,-12.58389261744973,-50.33557046979892,-25.16778523489946,12.58389261744973,-0.0,12.58389261744973,-0.0,-0.0,-0.0,2441.2751677852475,-0.0
-0.0,-12.58389261744973,-50.33557046979892,-25.16778523489946,12.58389261744973,-0.0,12.58389261744973,-0.0,-0.0,-0.0,2441.2751677852475,-0.0
-0.0,-12.58389261744973,-37.75167785234919,-12.58389261744973,12.58389261744973,-0.0,12.58389261744973,-0.0,-0.0,-0.0,2441.2751677852475,-0.0
-0.0,-12.58389261744973,-37.75167785234919,-12.58389261744973,12.58389261744973,-0.0,12.58389261744973,-0.0,-0.0,-0.0,2441.2751677852475,-0.0
-0.0,-12.58389261744973,-50.33557046979892,-12.58389261744973,-0.0,-0.0,12.58389261744973,-0.0,-12.58389261744973,-0.0,2441.2751677852475,-0.0
-12.58389261744973,-12.58389261744973,-62.919463087248644,-12.58389261744973,-0.0,-0.0,12.58389261744973,-0.0,-12.58389261744973,-0.0,2441.2751677852475,-0.0
-12.58389261744973,-12.58389261744973,-62.919463087248644,-12.58389261744973,-0.0,-12.58389261744973,12.58389261744973,-0.0,-12.58389261744973,-0.0,2441.2751677852475,-0.0
-12.58389261744973,-12.58389261744973,-62.919463087248644,-12.58389261744973,-0.0,-12.58389261744973,12.58389261744973,-0.0,-12.58389261744973,-0.0,2441.2751677852475,-0.0
-12.58389261744973,-12.58389261744973,-62.919463087248644,-0.0,-0.0,-12.58389261744973,12.58389261744973,-0.0,-12.58389261744973,-12.58389261744973,2428.691275167798,-0.0
-12.58389261744973,-25.16778523489946,-62.919463087248644,12.58389261744973,-0.0,-12.58389261744973,12.58389261744973,-0.0,-12.58389261744973,-25.16778523489946,2416.107382550348,-0.0
-12.58389261744973,-37.75167785234919,-62.919463087248644,25.16778523489946,-0.0,-25.16778523489946,12.58389261744973,-0.0,-12.58389261744973,-50.33557046979892,2390.9395973154487,-0.0
-12.58389261744973,-37.75167785234919,-62.919463087248644,25.16778523489946,-0.0,-25.16778523489946,12.58389261744973,-0.0,-12.58389261744973,-88.0872483221481,2353.187919463099,-12.58389261744973
-12.58389261744973,-37.75167785234919,-62.919463087248644,25.16778523489946,-0.0,-37.75167785234919,12.58389261744973,-0.0,-12.58389261744973,-151.00671140939676,2290.2684563758507,-37.75167785234919
-12.58389261744973,-37.75167785234919,-62.919463087248644,25.16778523489946,-0.0,-37.75167785234919,12.58389261744973,-0.0,-12.58389261744973,-239.09395973154486,2202.1812080537024,-75.50335570469838
-12.58389261744973,-37.75167785234919,-62.919463087248644,25.16778523489946,-0.0,-37.75167785234919,12.58389261744973,-0.0,-12.58389261744973,-327.18120805369296,2114.0939597315546,-138.422818791947
-12.58389261744973,-37.75167785234919,-62.919463087248644,25.16778523489946,-0.0,-37.75167785234919,12.58389261744973,-0.0,-12.58389261744973,-427.8523489932908,2013.4228187919566,-226.51006711409514
-12.58389261744973,-37.75167785234919,-62.919463087248644,25.16778523489946,-0.0,-37.75167785234919,12.58389261744973,-0.0,-12.58389261744973,-553.691275167788,1887.5838926174595,-314.5973154362432
-12.58389261744973,-37.75167785234919,-50.33557046979892,25.16778523489946,12.58389261744973,-37.75167785234919,12.58389261744973,-0.0,-12.58389261744973,-654.3624161073859,1786.9127516778615,-415.2684563758411
-12.58389261744973,-37.75167785234919,-62.919463087248644,25.16778523489946,12.58389261744973,-50.33557046979892,12.58389261744973,-0.0,-12.58389261744973,-780.2013422818832,1661.0738255033643,-528.5234899328887
-12.58389261744973,-37.75167785234919,-50.33557046979892,25.16778523489946,12.58389261744973,-50.33557046979892,12.58389261744973,-0.0,-12.58389261744973,-1057.0469798657773,1384.2281879194702,-641.7785234899362
-12.58389261744973,-37.75167785234919,-50.33557046979892,25.16778523489946,12.58389261744973,-50.33557046979892,12.58389261744973,-0.0,-12.58389261744973,-1572.9865771812163,868.2885906040314,1371.6442953020205
-12.58389261744973,-37.75167785234919,-62.919463087248644,25.16778523489946,-0.0,-50.33557046979892,12.58389261744973,-0.0,-12.58389261744973,-1550.1067724222166,339.7651006711427,1094.7986577181264
-12.58389261744973,-37.75167785234919,-62.919463087248644,25.16778523489946,-0.0,-50.33557046979892,12.58389261744973,-0.0,-12.58389261744973,-1527.2269676632172,-25.16778523489946,654.3624161073859
-12.58389261744973,-37.75167785234919,-62.919463087248644,25.16778523489946,-0.0,-50.33557046979892,12.58389261744973,-0.0,-12.58389261744973,-1504.3471629042174,-239.09395973154486,239.09395973154486
-12.58389261744973,-37.75167785234919,-62.919463087248644,12.58389261744973,12.58389261744973,-50.33557046979892,12.58389261744973,-0.0,-12.58389261744973,-1481.467358145218,-427.8523489932908,-0.0
-12.58389261744973,-37.75167785234919,-62.919463087248644,12.58389261744973,12.58389261744973,-50.33557046979892,12.58389261744973,-0.0,-12.58389261744973,-1458.5875533862186,-616.6107382550367,-113.25503355704757
-12.58389261744973,-37.75167785234919,-62.919463087248644,12.58389261744973,-0.0,-50.33557046979892,12.58389261744973,-0.0,-12.58389261744973,-1435.7077486272192,-717.2818791946346,-251.67785234899458
-12.58389261744973,-37.75167785234919,-62.919463087248644,25.16778523489946,-0.0,-50.33557046979892,12.58389261744973,-0.0,-12.58389261744973,-1412.8279438682198,-679.5302013422854,-377.5167785234919
-12.58389261744973,-37.75167785234919,-62.919463087248644,37.75167785234919,-0.0,-37.75167785234919,12.58389261744973,-0.0,-0.0,-1389.9481391092202,-503.35570469798915,-390.1006711409416
-12.58389261744973,-37.75167785234919,-62.919463087248644,62.919463087248644,-0.0,-37.75167785234919,12.58389261744973,-0.0,-0.0,-1367.0683343502205,-138.422818791947,-276.845637583894
-12.58389261744973,-37.75167785234919,-62.919463087248644,113.25503355704757,-0.0,-50.33557046979892,12.58389261744973,-0.0,-0.0,-1344.188529591221,427.8523489932908,-75.50335570469838
-12.58389261744973,-37.75167785234919,-62.919463087248644,201.34228187919567,-0.0,-62.919463087248644,12.58389261744973,-0.0,-0.0,-1321.3087248322215,1119.966442953026,251.67785234899458
-12.58389261744973,-37.75167785234919,-62.919463087248644,276.845637583894,-0.0,-88.0872483221481,12.58389261744973,-0.0,-0.0,-717.2818791946346,1723.9932885906128,742.449664429534
-12.58389261744973,-37.75167785234919,-62.919463087248644,377.5167785234919,12.58389261744973,-138.422818791947,12.58389261744973,12.58389261744973,-0.0,-352.3489932885924,-402.68456375839133,-578.8590604026875
-12.58389261744973,-37.75167785234919,-62.919463087248644,478.1879194630897,-12.58389261744973,-213.9261744966454,12.58389261744973,12.58389261744973,-0.0,-201.34228187919567,-289.42953020134377,-402.68456375839133
-12.58389261744973,-37.75167785234919,-62.919463087248644,578.8590604026875,-88.0872483221481,-302.0134228187935,12.58389261744973,25.16778523489946,-0.0,-163.59060402684648,-226.51006711409514,-302.0134228187935
-0.0,-37.75167785234919,-62.919463087248644,679.5302013422854,-213.9261744966454,-402.68456375839133,12.58389261744973,37.75167785234919,-0.0,-125.83892617449729,-151.00671140939676,-251.67785234899458
-0.0,-37.75167785234919,-62.919463087248644,780.2013422818832,-364.93288590604215,-478.1879194630897,12.58389261744973,50.33557046979892,12.58389261744973,-37.75167785234919,-37.75167785234919,-226.51006711409514
-0.0,-37.75167785234919,-62.919463087248644,918.6241610738302,-503.35570469798915,-503.35570469798915,12.58389261744973,62.919463087248644,12.58389261744973,75.50335570469838,88.0872483221481,-163.59060402684648
-0.0,-25.16778523489946,-62.919463087248644,1057.0469798657773,-566.2751677852378,-478.1879194630897,12.58389261744973,75.50335570469838,12.58389261744973,176.1744966442962,176.1744966442962,-75.50335570469838
-0.0,-25.16778523489946,-62.919463087248644,1119.966442953026,-553.691275167788,-440.4362416107405,12.58389261744973,75.50335570469838,12.58389261744973,264.2617449664443,264.2617449664443,12.58389261744973
-0.0,-25.16778523489946,-62.919463087248644,1094.7986577181264,-515.9395973154388,-440.4362416107405,12.58389261744973,75.50335570469838,37.75167785234919,302.0134228187935,302.0134228187935,88.0872483221481
-0.0,-37.75167785234919,-62.919463087248644,1094.7986577181264,-503.35570469798915,-515.9395973154388,12.58389261744973,75.50335570469838,50.33557046979892,327.18120805369296,327.18120805369296,138.422818791947
-0.0,-37.75167785234919,-75.50335570469838,1119.966442953026,-453.0201342281903,-578.8590604026875,12.58389261744973,37.75167785234919,62.919463087248644,339.7651006711427,339.7651006711427,176.1744966442962
-0.0,-25.16778523489946,-75.50335570469838,1094.7986577181264,-339.7651006711427,-591.4429530201372,12.58389261744973,12.58389261744973,75.50335570469838,339.7651006711427,352.3489932885924,188.75838926174595
-0.0,-25.16778523489946,-75.50335570469838,1006.7114093959783,-163.59060402684648,-604.026845637587,-0.0,-0.0,88.0872483221481,364.93288590604215,364.93288590604215,201.34228187919567
-0.0,-25.16778523489946,-62.919463087248644,918.6241610738302,25.16778523489946,-679.5302013422854,-0.0,-0.0,88.0872483221481,377.5167785234919,377.5167785234919,201.34228187919567
-0.0,-37.75167785234919,-75.50335570469838,817.9530201342324,151.00671140939676,-780.2013422818832,-0.0,-0.0,62.919463087248644,390.1006711409416,390.1006711409416,213.9261744966454
-0.0,-37.75167785234919,-75.50335570469838,666.9463087248356,188.75838926174595,-868.2885906040314,-0.0,-12.58389261744973,25.16778523489946,390.1006711409416,390.1006711409416,226.51006711409514
-0.0,-37.75167785234919,-75.50335570469838,515.9395973154388,100.67114093959783,-956.3758389261794,-0.0,-25.16778523489946,-0.0,402.68456375839133,402.68456375839133,239.09395973154486
-0.0,-25.16778523489946,-62.919463087248644,440.4362416107405,-62.919463087248644,-994.1275167785286,-0.0,-25.16778523489946,-12.58389261744973,415.2684563758411,415.2684563758411,251.67785234899458
-0.0,-25.16778523489946,-62.919463087248644,453.0201342281903,-201.34228187919567,-868.2885906040314,-0.0,-25.16778523489946,-12.58389261744973,427.8523489932908,440.4362416107405,251.67785234899458
-0.0,-25.16778523489946,-62.919463087248644,478.1879194630897,-239.09395973154486,-641.7785234899362,-0.0,-25.16778523489946,-25.16778523489946,440.4362416107405,453.0201342281903,264.2617449664443
-0.0,-25.16778523489946,-62.919463087248644,478.1879194630897,-213.9261744966454,-402.68456375839133,-0.0,-12.58389261744973,-37.75167785234919,453.0201342281903,465.60402684563996,276.845637583894
-0.0,-25.16778523489946,-75.50335570469838,415.2684563758411,-163.59060402684648,-276.845637583894,-0.0,-12.58389261744973,-37.75167785234919,478.1879194630897,490.77181208053946,289.42953020134377
-0.0,-25.16778523489946,-88.0872483221481,276.845637583894,-62.919463087248644,-264.2617449664443,-0.0,-12.58389261744973,-37.75167785234919,503.35570469798915,515.9395973154388,289.42953020134377
12.58389261744973,-25.16778523489946,-88.0872483221481,138.422818791947,12.58389261744973,-276.845637583894,-0.0,-12.58389261744973,-37.75167785234919,515.9395973154388,528.5234899328887,302.0134228187935
25.16778523489946,-25.16778523489946,-75.50335570469838,12.58389261744973,75.50335570469838,-264.2617449664443,-0.0,-12.58389261744973,-25.16778523489946,541.1073825503383,553.691275167788,314.5973154362432
25.16778523489946,-12.58389261744973,-62.919463087248644,-75.50335570469838,88.0872483221481,-226.51006711409514,-0.0,-12.58389261744973,-25.16778523489946,566.2751677852378,578.8590604026875,327.18120805369296
37.75167785234919,-12.58389261744973,-75.50335570469838,-113.25503355704757,75.50335570469838,-163.59060402684648,-0.0,-12.58389261744973,-25.16778523489946,604.026845637587,616.6107382550367,352.3489932885924
50.33557046979892,-12.58389261744973,-88.0872483221481,-138.422818791947,75.50335570469838,-100.67114093959783,-0.0,-12.58389261744973,-25.16778523489946,629.1946308724864,641.7785234899362,364.93288590604215
62.919463087248644,12.58389261744973,-88.0872483221481,-151.00671140939676,88.0872483221481,-37.75167785234919,-0.0,-0.0,-25.16778523489946,666.9463087248356,679.5302013422854,377.5167785234919
88.0872483221481,25.16778523489946,-62.919463087248644,-163.59060402684648,88.0872483221481,25.16778523489946,12.58389261744973,62.919463087248644,-25.16778523489946,717.2818791946346,717.2818791946346,402.68456375839133
100.67114093959783,50.33557046979892,-50.33557046979892,-176.1744966442962,88.0872483221481,37.75167785234919,25.16778523489946,226.51006711409514,-25.16778523489946,742.449664429534,767.6174496644335,427.8523489932908
100.67114093959783,62.919463087248644,-50.33557046979892,-176.1744966442962,88.0872483221481,50.33557046979892,37.75167785234919,515.9395973154388,-25.16778523489946,792.785234899333,817.9530201342324,453.0201342281903
113.25503355704757,62.919463087248644,-62.919463087248644,-188.75838926174595,88.0872483221481,50.33557046979892,37.75167785234919,755.0335570469838,-12.58389261744973,843.1208053691319,868.2885906040314,478.1879194630897
113.25503355704757,62.919463087248644,-75.50335570469838,-201.34228187919567,88.0872483221481,62.919463087248644,37.75167785234919,553.691275167788,50.33557046979892,893.4563758389307,918.6241610738302,515.9395973154388
100.67114093959783,75.50335570469838,-75.50335570469838,-201.34228187919567,88.0872483221481,75.50335570469838,50.33557046979892,163.59060402684648,201.34228187919567,931.2080536912799,968.9597315436291,541.1073825503383
88.0872483221481,88.0872483221481,-88.0872483221481,-201.34228187919567,88.0872483221481,75.50335570469838,50.33557046979892,-377.5167785234919,402.68456375839133,981.5436241610789,1031.8791946308777,578.8590604026875
75.50335570469838,88.0872483221481,-88.0872483221481,-213.9261744966454,88.0872483221481,88.0872483221481,50.33557046979892,-1245.8053691275231,566.2751677852378,1031.8791946308777,1082.2147651006767,616.6107382550367
88.0872483221481,62.919463087248644,-100.67114093959783,-226.51006711409514,88.0872483221481,100.67114093959783,37.75167785234919,-2114.0939597315546,553.691275167788,1069.630872483227,1119.966442953026,654.3624161073859
88.0872483221481,50.33557046979892,-100.67114093959783,-239.09395973154486,88.0872483221481,113.25503355704757,12.58389261744973,-2529.3624161073953,415.2684563758411,1119.966442953026,1170.3020134228248,692.1140939597351
75.50335570469838,50.33557046979892,-100.67114093959783,-251.67785234899458,88.0872483221481,113.25503355704757,-12.58389261744973,-2265.1006711409514,75.50335570469838,1145.1342281879254,1208.053691275174,717.2818791946346
62.919463087248644,37.75167785234919,-100.67114093959783,-264.2617449664443,88.0872483221481,125.83892617449729,-37.75167785234919,-1786.9127516778615,-578.8590604026875,1157.718120805375,1233.2214765100734,755.0335570469838
50.33557046979892,25.16778523489946,-100.67114093959783,-276.845637583894,88.0872483221481,125.83892617449729,-50.33557046979892,-1270.9731543624227,-1308.7248322147718,1170.3020134228248,1258.3892617449728,792.785234899333
37.75167785234919,12.58389261744973,-100.67114093959783,-289.42953020134377,88.0872483221481,138.422818791947,-50.33557046979892,-830.5369127516822,-1736.5771812080627,1182.8859060402744,1270.9731543624227,817.9530201342324
25.16778523489946,-0.0,-100.67114093959783,-314.5973154362432,100.67114093959783,151.00671140939676,-50.33557046979892,-490.77181208053946,-1648.4899328859144,1170.3020134228248,1258.3892617449728,843.1208053691319
12.58389261744973,-25.16778523489946,-100.67114093959783,-339.7651006711427,100.67114093959783,163.59060402684648,-62.919463087248644,-239.09395973154486,-1308.7248322147718,1145.1342281879254,1245.8053691275231,855.7046979865816
-0.0,-37.75167785234919,-100.67114093959783,-352.3489932885924,113.25503355704757,176.1744966442962,-62.919463087248644,-88.0872483221481,-918.6241610738302,1107.382550335576,1208.053691275174,855.7046979865816
-0.0,-50.33557046979892,-100.67114093959783,-377.5167785234919,113.25503355704757,188.75838926174595,-62.919463087248644,-12.58389261744973,-566.2751677852378,1044.4630872483276,1145.1342281879254,855.7046979865816
-0.0,-62.919463087248644,-100.67114093959783,-402.68456375839133,113.25503355704757,213.9261744966454,-62.919463087248644,62.919463087248644,-314.5973154362432,981.5436241610789,1082.2147651006767,843.1208053691319
-12.58389261744973,-75.50335570469838,-88.0872483221481,-427.8523489932908,113.25503355704757,226.51006711409514,-50.33557046979892,100.67114093959783,-188.75838926174595,906.0402684563805,1006.7114093959783,805.3691275167827
-25.16778523489946,-75.50335570469838,-100.67114093959783,-465.60402684563996,125.83892617449729,251.67785234899458,-37.75167785234919,113.25503355704757,-125.83892617449729,817.9530201342324,931.2080536912799,767.6174496644335
-25.16778523489946,-75.50335570469838,-100.67114093959783,-503.35570469798915,138.422818791947,276.845637583894,-25.16778523489946,125.83892617449729,-88.0872483221481,717.2818791946346,830.5369127516822,729.8657718120843
-37.75167785234919,-75.50335570469838,-125.83892617449729,-541.1073825503383,138.422818791947,289.42953020134377,-12.58389261744973,138.422818791947,-37.75167785234919,629.1946308724864,729.8657718120843,666.9463087248356
-37.75167785234919,-88.0872483221481,-188.75838926174595,-578.8590604026875,151.00671140939676,314.5973154362432,-12.58389261744973,138.422818791947,-12.58389261744973,528.5234899328887,629.1946308724864,604.026845637587
-37.75167785234919,-88.0872483221481,-239.09395973154486,-616.6107382550367,151.00671140939676,339.7651006711427,-12.58389261744973,151.00671140939676,-0.0,427.8523489932908,528.5234899328887,541.1073825503383
-62.919463087248644,-88.0872483221481,-201.34228187919567,-654.3624161073859,163.59060402684648,377.5167785234919,-12.58389261744973,151.00671140939676,12.58389261744973,352.3489932885924,427.8523489932908,465.60402684563996
-100.67114093959783,-100.67114093959783,-75.50335570469838,-692.1140939597351,176.1744966442962,402.68456375839133,-12.58389261744973,163.59060402684648,12.58389261744973,276.845637583894,339.7651006711427,402.68456375839133
-113.25503355704757,-151.00671140939676,113.25503355704757,-729.8657718120843,176.1744966442962,440.4362416107405,-12.58389261744973,163.59060402684648,25.16778523489946,226.51006711409514,264.2617449664443,339.7651006711427
-62.919463087248644,-251.67785234899458,314.5973154362432,-780.2013422818832,176.1744966442962,478.1879194630897,-12.58389261744973,163.59060402684648,25.16778523489946,163.59060402684648,201.34228187919567,264.2617449664443
50.33557046979892,-314.5973154362432,415.2684563758411,-805.3691275167827,163.59060402684648,515.9395973154388,25.16778523489946,176.1744966442962,37.75167785234919,113.25503355704757,151.00671140939676,201.34228187919567
251.67785234899458,-239.09395973154486,528.5234899328887,-830.5369127516822,163.59060402684648,541.1073825503383,88.0872483221481,176.1744966442962,37.75167785234919,88.0872483221481,100.67114093959783,151.00671140939676
553.691275167788,-0.0,717.2818791946346,-855.7046979865816,151.00671140939676,578.8590604026875,239.09395973154486,188.75838926174595,37.75167785234919,62.919463087248644,75.50335570469838,113.25503355704757
780.2013422818832,415.2684563758411,880.872483221481,-868.2885906040314,138.422818791947,616.6107382550367,453.0201342281903,188.75838926174595,37.75167785234919,50.33557046979892,50.33557046979892,88.0872483221481
-956.3758389261794,1145.1342281879254,893.4563758389307,-868.2885906040314,113.25503355704757,654.3624161073859,541.1073825503383,201.34228187919567,50.33557046979892,37.75167785234919,25.16778523489946,62.919463087248644
-855.7046979865816,1308.7248322147718,729.8657718120843,-868.2885906040314,88.0872483221481,679.5302013422854,478.1879194630897,201.34228187919567,50.33557046979892,12.58389261744973,-0.0,37.75167785234919
-805.3691275167827,1535.234899328867,478.1879194630897,-843.1208053691319,62.919463087248644,704.6979865771848,352.3489932885924,213.9261744966454,50.33557046979892,12.58389261744973,-0.0,25.16778523489946
616.6107382550367,1610.7382550335653,239.09395973154486,-805.3691275167827,50.33557046979892,729.8657718120843,-176.1744966442962,213.9261744966454,62.919463087248644,12.58389261744973,-0.0,25.16778523489946
478.1879194630897,717.2818791946346,88.0872483221481,-767.6174496644335,25.16778523489946,742.449664429534,-692.1140939597351,226.51006711409514,62.919463087248644,12.58389261744973,-0.0,12.58389261744973
352.3489932885924,1182.8859060402744,-12.58389261744973,-717.2818791946346,12.58389261744973,755.0335570469838,-1208.053691275174,226.51006711409514,62.919463087248644,12.58389261744973,-0.0,12.58389261744973
251.67785234899458,1359.0604026845708,-75.50335570469838,-654.3624161073859,-0.0,742.449664429534,-981.5436241610789,226.51006711409514,75.50335570469838,12.58389261744973,-0.0,12.58389261744973
138.422818791947,880.872483221481,-113.25503355704757,-591.4429530201372,-0.0,717.2818791946346,-880.872483221481,226.51006711409514,75.50335570469838,12.58389261744973,-0.0,12.58389261744973
75.50335570469838,528.5234899328887,-125.83892617449729,-515.9395973154388,-0.0,679.5302013422854,-843.1208053691319,239.09395973154486,75.50335570469838,12.58389261744973,-0.0,12.58389261744973
12.58389261744973,289.42953020134377,-125.83892617449729,-440.4362416107405,-0.0,629.1946308724864,-968.9597315436291,239.09395973154486,75.50335570469838,12.58389261744973,-0.0,12.58389261744973
-12.58389261744973,100.67114093959783,-113.25503355704757,-352.3489932885924,-0.0,578.8590604026875,-780.2013422818832,251.67785234899458,88.0872483221481,12.58389261744973,-0.0,12.58389261744973
-37.75167785234919,-12.58389261744973,-125.83892617449729,-289.42953020134377,-0.0,503.35570469798915,-591.4429530201372,251.67785234899458,88.0872483221481,12.58389261744973,-0.0,12.58389261744973
-50.33557046979892,-88.0872483221481,-138.422818791947,-226.51006711409514,-0.0,427.8523489932908,-339.7651006711427,264.2617449664443,88.0872483221481,12.58389261744973,-0.0,12.58389261744973
-50.33557046979892,-125.83892617449729,-138.422818791947,-163.59060402684648,-0.0,339.7651006711427,-151.00671140939676,264.2617449664443,88.0872483221481,25.16778523489946,-0.0,12.58389261744973
-50.33557046979892,-138.422818791947,-138.422818791947,-125.83892617449729,-0.0,289.42953020134377,-37.75167785234919,264.2617449664443,88.0872483221481,25.16778523489946,-0.0,12.58389261744973
-50.33557046979892,-138.422818791947,-138.422818791947,-100.67114093959783,-0.0,213.9261744966454,37.75167785234919,264.2617449664443,88.0872483221481,25.16778523489946,-0.0,12.58389261744973
-50.33557046979892,-151.00671140939676,-138.422818791947,-62.919463087248644,-0.0,151.00671140939676,100.67114093959783,276.845637583894,100.67114093959783,25.16778523489946,-0.0,12.58389261744973
-50.33557046979892,-151.00671140939676,-138.422818791947,-37.75167785234919,-0.0,113.25503355704757,125.83892617449729,276.845637583894,100.67114093959783,12.58389261744973,-0.0,12.58389261744973
-50.33557046979892,-151.00671140939676,-138.422818791947,-25.16778523489946,-0.0,62.919463087248644,138.422818791947,276.845637583894,100.67114093959783,12.58389261744973,-0.0,12.58389261744973
-50.33557046979892,-151.00671140939676,-138.422818791947,-12.58389261744973,12.58389261744973,25.16778523489946,151.00671140939676,289.42953020134377,100.67114093959783,12.58389261744973,-0.0,12.58389261744973
-50.33557046979892,-151.00671140939676,-138.422818791947,-12.58389261744973,12.58389261744973,-0.0,163.59060402684648,289.42953020134377,100.67114093959783,12.58389261744973,-0.0,12.58389261744973
-50.33557046979892,-163.59060402684648,-151.00671140939676,-0.0,-0.0,-12.58389261744973,163.59060402684648,289.42953020134377,100.67114093959783,12.58389261744973,-0.0,12.58389261744973
-50.33557046979892,-151.00671140939676,-151.00671140939676,-0.0,-0.0,-25.16778523489946,163.59060402684648,302.0134228187935,100.67114093959783,12.58389261744973,-0.0,-0.0
-50.33557046979892,-151.00671140939676,-138.422818791947,12.58389261744973,-0.0,-25.16778523489946,163.59060402684648,302.0134228187935,113.25503355704757,12.58389261744973,-0.0,-0.0
-50.33557046979892,-151.00671140939676,-125.83892617449729,12.58389261744973,-0.0,-25.16778523489946,163.59060402684648,302.0134228187935,113.25503355704757,12.58389261744973,-0.0,-0.0
-50.33557046979892,-151.00671140939676,-138.422818791947,12.58389261744973,12.58389261744973,-37.75167785234919,163.59060402684648,314.5973154362432,113.25503355704757,12.58389261744973,-12.58389261744973,-0.0
-50.33557046979892,-151.00671140939676,-138.422818791947,12.58389261744973,12.58389261744973,-37.75167785234919,163.59060402684648,314.5973154362432,125.83892617449729,12.58389261744973,-12.58389261744973,-0.0
-50.33557046979892,-151.00671140939676,-138.422818791947,25.16778523489946,25.16778523489946,-50.33557046979892,176.1744966442962,314.5973154362432,125.83892617449729,12.58389261744973,-12.58389261744973,-0.0
-50.33557046979892,-151.00671140939676,-138.422818791947,12.58389261744973,25.16778523489946,-50.33557046979892,163.59060402684648,327.18120805369296,125.83892617449729,12.58389261744973,-12.58389261744973,-0.0
-50.33557046979892,-151.00671140939676,-138.422818791947,12.58389261744973,25.16778523489946,-50.33557046979892,176.1744966442962,339.7651006711427,125.83892617449729,-0.0,-25.16778523489946,-0.0
-37.75167785234919,-151.00671140939676,-125.83892617449729,12.58389261744973,12.58389261744973,-50.33557046979892,176.1744966442962,339.7651006711427,138.422818791947,-0.0,-25.16778523489946,-0.0
-37.75167785234919,-151.00671140939676,-138.422818791947,12.58389261744973,12.58389261744973,-50.33557046979892,176.1744966442962,339.7651006711427,138.422818791947,-0.0,-25.16778523489946,-12.58389261744973
-50.33557046979892,-138.422818791947,-138.422818791947,12.58389261744973,12.58389261744973,-50.33557046979892,176.1744966442962,327.18120805369296,151.00671140939676,-0.0,-25.16778523489946,-12.58389261744973
-50.33557046979892,-138.422818791947,-138.422818791947,12.58389261744973,25.16778523489946,-50.33557046979892,188.75838926174595,314.5973154362432,163.59060402684648,-0.0,-25.16778523489946,-12.58389261744973
-50.33557046979892,-138.422818791947,-151.00671140939676,12.58389261744973,25.16778523489946,-50.33557046979892,188.75838926174595,302.0134228187935,163.59060402684648,-12.58389261744973,-37.75167785234919,-12.58389261744973
-50.33557046979892,-151.00671140939676,-151.00671140939676,12.58389261744973,25.16778523489946,-62.919463087248644,188.75838926174595,276.845637583894,176.1744966442962,-12.58389261744973,-37.75167785234919,-12.58389261744973
-50.33557046979892,-151.00671140939676,-151.00671140939676,25.16778523489946,25.16778523489946,-62.919463087248644,201.34228187919567,239.09395973154486,188.75838926174595,-12.58389261744973,-37.75167785234919,-12.58389261744973
-50.33557046979892,-151.00671140939676,-151.00671140939676,25.16778523489946,12.58389261744973,-62.919463087248644,201.34228187919567,213.9261744966454,188.75838926174595,-12.58389261744973,-37.75167785234919,-12.58389261744973
-62.919463087248644,-151.00671140939676,-151.00671140939676,25.16778523489946,-0.0,-62.919463087248644,201.34228187919567,188.75838926174595,176.1744966442962,-12.58389261744973,-37.75167785234919,-12.58389261744973
-62.919463087248644,-163.59060402684648,-151.00671140939676,25.16778523489946,12.58389261744973,-62.919463087248644,213.9261744966454,151.00671140939676,163.59060402684648,-12.58389261744973,-37.75167785234919,-12.58389261744973
-62.919463087248644,-176.1744966442962,-163.59060402684648,25.16778523489946,25.16778523489946,-62.919463087248644,213.9261744966454,125.83892617449729,151.00671140939676,-12.58389261744973,-37.75167785234919,-12.58389261744973
-75.50335570469838,-176.1744966442962,-163.59060402684648,25.16778523489946,25.16778523489946,-50.33557046979892,213.9261744966454,113.25503355704757,125.83892617449729,-12.58389261744973,-37.75167785234919,-25.16778523489946
-75.50335570469838,-188.75838926174595,-163.59060402684648,25.16778523489946,12.58389261744973,-62.919463087248644,213.9261744966454,88.0872483221481,113.25503355704757,-12.58389261744973,-37.75167785234919,-25.16778523489946
-88.0872483221481,-188.75838926174595,-163.59060402684648,25.16778523489946,12.58389261744973,-62.919463087248644,226.51006711409514,75.50335570469838,88.0872483221481,-12.58389261744973,-37.75167785234919,-25.16778523489946
-88.0872483221481,-201.34228187919567,-151.00671140939676,25.16778523489946,12.58389261744973,-62.919463087248644,226.51006711409514,75.50335570469838,75.50335570469838,-25.16778523489946,-37.75167785234919,-25.16778523489946
-100.67114093959783,-213.9261744966454,-151.00671140939676,25.16778523489946,12.58389261744973,-62.919463087248644,239.09395973154486,62.919463087248644,62.919463087248644,-25.16778523489946,-37.75167785234919,-12.58389261744973
-113.25503355704757,-226.51006711409514,-151.00671140939676,37.75167785234919,12.58389261744973,-50.33557046979892,251.67785234899458,50.33557046979892,50.33557046979892,-25.16778523489946,-37.75167785234919,-12.58389261744973
-125.83892617449729,-239.09395973154486,-151.00671140939676,37.75167785234919,12.58389261744973,-50.33557046979892,251.67785234899458,50.33557046979892,37.75167785234919,-25.16778523489946,-37.75167785234919,-12.58389261744973
-125.83892617449729,-239.09395973154486,-151.00671140939676,37.75167785234919,12.58389261744973,-62.919463087248644,264.2617449664443,50.33557046979892,37.75167785234919,-12.58389261744973,-37.75167785234919,-25.16778523489946
-125.83892617449729,-239.09395973154486,-151.00671140939676,37.75167785234919,12.58389261744973,-62.919463087248644,276.845637583894,50.33557046979892,37.75167785234919,-12.58389261744973,-37.75167785234919,-25.16778523489946
-125.83892617449729,-239.09395973154486,-151.00671140939676,37.75167785234919,12.58389261744973,-62.919463087248644,289.42953020134377,50.33557046979892,37.75167785234919,-12.58389261744973,-37.75167785234919,-25.16778523489946
-125.83892617449729,-239.09395973154486,-151.00671140939676,37.75167785234919,12.58389261744973,-75.50335570469838,289.42953020134377,50.33557046979892,25.16778523489946,-12.58389261744973,-37.75167785234919,-12.58389261744973
-125.83892617449729,-251.67785234899458,-125.83892617449729,37.75167785234919,12.58389261744973,-75.50335570469838,302.0134228187935,37.75167785234919,25.16778523489946,-12.58389261744973,-37.75167785234919,-12.58389261744973
-125.83892617449729,-251.67785234899458,-113.25503355704757,37.75167785234919,12.58389261744973,-75.50335570469838,314.5973154362432,37.75167785234919,25.16778523489946,-12.58389261744973,-37.75167785234919,-12.58389261744973
-113.25503355704757,-239.09395973154486,-100.67114093959783,37.75167785234919,12.58389261744973,-75.50335570469838,327.18120805369296,37.75167785234919,25.16778523489946,-12.58389261744973,-37.75167785234919,-12.58389261744973
-113.25503355704757,-239.09395973154486,-88.0872483221481,37.75167785234919,25.16778523489946,-62.919463087248644,327.18120805369296,25.16778523489946,25.16778523489946,-12.58389261744973,-37.75167785234919,-12.58389261744973
-100.67114093959783,-226.51006711409514,-75.50335570469838,37.75167785234919,25.16778523489946,-62.919463087248644,339.7651006711427,25.16778523489946,25.16778523489946,-12.58389261744973,-37.75167785234919,-12.58389261744973
-75.50335570469838,-201.34228187919567,-62.919463087248644,37.75167785234919,12.58389261744973,-75.50335570469838,339.7651006711427,25.16778523489946,25.16778523489946,-12.58389261744973,-37.75167785234919,-12.58389261744973
-62.919463087248644,-176.1744966442962,-62.919463087248644,37.75167785234919,12.58389261744973,-75.50335570469838,339.7651006711427,25.16778523489946,25.16778523489946,-12.58389261744973,-37.75167785234919,-12.58389261744973
-37.75167785234919,-138.422818791947,-50.33557046979892,37.75167785234919,12.58389261744973,-75.50335570469838,352.3489932885924,25.16778523489946,12.58389261744973,-12.58389261744973,-37.75167785234919,-12.58389261744973
-25.16778523489946,-113.25503355704757,-50.33557046979892,25.16778523489946,-0.0,-75.50335570469838,339.7651006711427,25.16778523489946,12.58389261744973,-12.58389261744973,-37.75167785234919,-12.58389261744973
-12.58389261744973,-75.50335570469838,-50.33557046979892,25.16778523489946,-0.0,-75.50335570469838,327.18120805369296,25.16778523489946,12.58389261744973,-12.58389261744973,-37.75167785234919,-12.58389261744973
-12.58389261744973,-50.33557046979892,-37.75167785234919,25.16778523489946,-0.0,-62.919463087248644,302.0134228187935,25.16778523489946,12.58389261744973,-12.58389261744973,-37.75167785234919,-12.58389261744973
-0.0,-37.75167785234919,-37.75167785234919,25.16778523489946,-0.0,-50.33557046979892,276.845637583894,12.58389261744973,12.58389261744973,-12.58389261744973,-37.75167785234919,-12.58389261744973
12.58389261744973,-12.58389261744973,-37.75167785234919,37.75167785234919,-0.0,-50.33557046979892,239.09395973154486,12.58389261744973,12.58389261744973,-12.58389261744973,-25.16778523489946,-12.58389261744973
25.16778523489946,-0.0,-37.75167785234919,25.16778523489946,-0.0,-50.33557046979892,201.34228187919567,12.58389261744973,12.58389261744973,-12.58389261744973,-25.16778523489946,-12.58389261744973
25.16778523489946,-0.0,-25.16778523489946,25.16778523489946,12.58389261744973,-50.33557046979892,163.59060402684648,12.58389261744973,-0.0,-12.58389261744973,-25.16778523489946,-12.58389261744973
25.16778523489946,12.58389261744973,-25.16778523489946,25.16778523489946,25.16778523489946,-50.33557046979892,125.83892617449729,12.58389261744973,-0.0,-12.58389261744973,-25.16778523489946,-12.58389261744973
25.16778523489946,25.16778523489946,-25.16778523489946,25.16778523489946,12.58389261744973,-62.919463087248644,100.67114093959783,12.58389261744973,-0.0,-12.58389261744973,-25.16778523489946,-12.58389261744973
25.16778523489946,37.75167785234919,-25.16778523489946,25.16778523489946,12.58389261744973,-62.919463087248644,75.50335570469838,12.58389261744973,-0.0,-12.58389261744973,-25.16778523489946,-12.58389261744973
25.16778523489946,37.75167785234919,-25.16778523489946,25.16778523489946,12.58389261744973,-62.919463087248644,50.33557046979892,12.58389261744973,-0.0,-12.58389261744973,-25.16778523489946,-12.58389261744973
25.16778523489946,37.75167785234919,-25.16778523489946,25.16778523489946,12.58389261744973,-62.919463087248644,25.16778523489946,12.58389261744973,-0.0,-0.0,-25.16778523489946,-0.0
25.16778523489946,50.33557046979892,-25.16778523489946,37.75167785234919,12.58389261744973,-62.919463087248644,12.58389261744973,12.58389261744973,-0.0,-0.0,-25.16778523489946,-0.0
25.16778523489946,50.33557046979892,-25.16778523489946,37.75167785234919,12.58389261744973,-62.919463087248644,-0.0,12.58389261744973,-0.0,-0.0,-25.16778523489946,-0.0
25.16778523489946,50.33557046979892,-12.58389261744973,37.75167785234919,12.58389261744973,-62.919463087248644,-0.0,12.58389261744973,-0.0,-0.0,-12.58389261744973,-0.0
25.16778523489946,50.33557046979892,-12.58389261744973,25.16778523489946,12.58389261744973,-62.919463087248644,-12.58389261744973,12.58389261744973,-0.0,-0.0,-12.58389261744973,-0.0
25.16778523489946,50.33557046979892,-0.0,25.16778523489946,12.58389261744973,-62.919463087248644,-12.58389261744973,-0.0,-0.0,-0.0,-12.58389261744973,-0.0
25.16778523489946,50.33557046979892,-12.58389261744973,25.16778523489946,12.58389261744973,-62.919463087248644,-12.58389261744973,-0.0,-0.0,-0.0,-12.58389261744973,-0.0
25.16778523489946,50.33557046979892,-12.58389261744973,37.75167785234919,12.58389261744973,-50.33557046979892,-12.58389261744973,-0.0,-12.58389261744973,-0.0,-12.58389261744973,-0.0
25.16778523489946,62.919463087248644,-12.58389261744973,37.75167785234919,-0.0,-50.33557046979892,-12.58389261744973,-0.0,-12.58389261744973,-0.0,-12.58389261744973,-0.0
25.16778523489946,62.919463087248644,-12.58389261744973,37.75167785234919,-0.0,-62.919463087248644,-25.16778523489946,-0.0,-12.58389261744973,-0.0,-12.58389261744973,-0.0
25.16778523489946,62.919463087248644,-12.58389261744973,25.16778523489946,12.58389261744973,-62.919463087248644,-25.16778523489946,-0.0,-12.58389261744973,12.58389261744973,-12.58389261744973,-0.0
25.16778523489946,62.919463087248644,-12.58389261744973,25.16778523489946,12.58389261744973,-62.919463087248644,-25.16778523489946,-0.0,-12.58389261744973,-0.0,-12.58389261744973,-0.0
25.16778523489946,50.33557046979892,-12.58389261744973,25.16778523489946,12.58389261744973,-62.919463087248644,-25.16778523489946,-0.0,-25.16778523489946,-0.0,-12.58389261744973,-0.0
25.16778523489946,50.33557046979892,-12.58389261744973,50.33557046979892,-12.58389261744973,-62.919463087248644,-25.16778523489946,-0.0,-25.16778523489946,-0.0,-12.58389261744973,-0.0
12.58389261744973,50.33557046979892,-12.58389261744973,37.75167785234919,-0.0,-62.919463087248644,-12.58389261744973,-0.0,-25.16778523489946,-0.0,-12.58389261744973,-0.0
-0.0,37.75167785234919,-12.58389261744973,-12.58389261744973,37.75167785234919,-50.33557046979892,-12.58389261744973,12.58389261744973,-25.16778523489946,-0.0,-12.58389261744973,-0.0
-0.0,37.75167785234919,-12.58389261744973,-12.58389261744973,25.16778523489946,-62.919463087248644,-12.58389261744973,37.75167785234919,-25.16778523489946,12.58389261744973,-12.58389261744973,-0.0
-0.0,25.16778523489946,-12.58389261744973,-0.0,-0.0,-50.33557046979892,-12.58389261744973,100.67114093959783,-25.16778523489946,12.58389261744973,-12.58389261744973,-0.0
-0.0,25.16778523489946,-12.58389261744973,12.58389261744973,-0.0,-37.75167785234919,-12.58389261744973,213.9261744966454,-12.58389261744973,12.58389261744973,-12.58389261744973,-0.0
-0.0,25.16778523489946,-12.58389261744973,12.58389261744973,-0.0,-37.75167785234919,-12.58389261744973,339.7651006711427,-12.58389261744973,12.58389261744973,-0.0,-0.0
-0.0,25.16778523489946,-12.58389261744973,12.58389261744973,-0.0,-25.16778523489946,-12.58389261744973,427.8523489932908,12.58389261744973,12.58389261744973,-0.0,-0.0
-12.58389261744973,25.16778523489946,-0.0,-0.0,-0.0,-25.16778523489946,-12.58389261744973,490.77181208053946,50.33557046979892,25.16778523489946,-0.0,12.58389261744973
-12.58389261744973,25.16778523489946,-0.0,-0.0,-0.0,-25.16778523489946,-12.58389261744973,515.9395973154388,100.67114093959783,37.75167785234919,12.58389261744973,12.58389261744973
-12.58389261744973,25.16778523489946,-0.0,-0.0,-0.0,-12.58389261744973,-12.58389261744973,478.1879194630897,138.422818791947,37.75167785234919,12.58389261744973,25.16778523489946
-12.58389261744973,25.16778523489946,-0.0,-0.0,-12.58389261744973,-12.58389261744973,-12.58389261744973,339.7651006711427,176.1744966442962,50.33557046979892,25.16778523489946,25.16778523489946
-25.16778523489946,12.58389261744973,-0.0,-0.0,-12.58389261744973,-12.58389261744973,-0.0,88.0872483221481,239.09395973154486,62.919463087248644,37.75167785234919,25.16778523489946
-25.16778523489946,12.58389261744973,-0.0,-12.58389261744973,-12.58389261744973,-12.58389261744973,-0.0,-226.51006711409514,327.18120805369296,75.50335570469838,50.33557046979892,25.16778523489946
-25.16778523489946,12.58389261744973,-0.0,-12.58389261744973,-12.58389261744973,-12.58389261744973,-0.0,-566.2751677852378,453.0201342281903,75.50335570469838,50.33557046979892,37.75167785234919
-25.16778523489946,12.58389261744973,-0.0,-12.58389261744973,-12.58389261744973,-0.0,-0.0,-830.5369127516822,503.35570469798915,88.0872483221481,62.919463087248644,50.33557046979892
-25.16778523489946,12.58389261744973,-0.0,-25.16778523489946,-12.58389261744973,-0.0,-0.0,-1082.2147651006767,427.8523489932908,88.0872483221481,62.919463087248644,50.33557046979892
-12.58389261744973,12.58389261744973,-0.0,-37.75167785234919,-0.0,-0.0,-0.0,-1359.0604026845708,239.09395973154486,75.50335570469838,50.33557046979892,62.919463087248644
-12.58389261744973,12.58389261744973,-0.0,-50.33557046979892,-0.0,-0.0,-0.0,-1686.2416107382637,-12.58389261744973,50.33557046979892,37.75167785234919,75.50335570469838
-12.58389261744973,12.58389261744973,-0.0,-62.919463087248644,-0.0,12.58389261744973,-0.0,-1950.503355704708,-188.75838926174595,50.33557046979892,37.75167785234919,62.919463087248644
-12.58389261744973,25.16778523489946,-0.0,-75.50335570469838,-0.0,25.16778523489946,-0.0,-2026.0067114094063,-339.7651006711427,50.33557046979892,37.75167785234919,50.33557046979892
-12.58389261744973,25.16778523489946,-0.0,-75.50335570469838,12.58389261744973,37.75167785234919,-12.58389261744973,-1887.5838926174595,-566.2751677852378,37.75167785234919,25.16778523489946,50.33557046979892
-12.58389261744973,25.16778523489946,-0.0,-62.919463087248644,25.16778523489946,50.33557046979892,-12.58389261744973,-1522.6510067114173,-868.2885906040314,25.16778523489946,12.58389261744973,50.33557046979892
-12.58389261744973,25.16778523489946,-12.58389261744973,-37.75167785234919,25.16778523489946,50.33557046979892,-12.58389261744973,-918.6241610738302,-1107.382550335576,12.58389261744973,12.58389261744973,50.33557046979892
-25.16778523489946,25.16778523489946,-50.33557046979892,-25.16778523489946,25.16778523489946,37.75167785234919,-12.58389261744973,-289.42953020134377,-1208.053691275174,12.58389261744973,-0.0,37.75167785234919
-25.16778523489946,25.16778523489946,-100.67114093959783,-12.58389261744973,12.58389261744973,25.16778523489946,-12.58389261744973,138.422818791947,-1132.5503355704757,-0.0,-0.0,37.75167785234919
-37.75167785234919,25.16778523489946,-176.1744966442962,-12.58389261744973,12.58389261744973,-0.0,-25.16778523489946,314.5973154362432,-880.872483221481,-0.0,-0.0,25.16778523489946
-75.50335570469838,12.58389261744973,-239.09395973154486,12.58389261744973,12.58389261744973,-0.0,-25.16778523489946,289.42953020134377,-390.1006711409416,-0.0,-0.0,25.16778523489946
-125.83892617449729,-25.16778523489946,-264.2617449664443,25.16778523489946,12.58389261744973,-12.58389261744973,-25.16778523489946,201.34228187919567,163.59060402684648,-0.0,-12.58389261744973,25.16778523489946
-176.1744966442962,-88.0872483221481,-239.09395973154486,25.16778523489946,12.58389261744973,-25.16778523489946,-25.16778523489946,100.67114093959783,541.1073825503383,-0.0,-12.58389261744973,12.58389261744973
-213.9261744966454,-188.75838926174595,-151.00671140939676,25.16778523489946,12.58389261744973,-50.33557046979892,-12.58389261744973,75.50335570469838,679.5302013422854,-0.0,-12.58389261744973,-0.0
-302.0134228187935,-302.0134228187935,-37.75167785234919,25.16778523489946,12.58389261744973,-62.919463087248644,-0.0,100.67114093959783,553.691275167788,-0.0,-12.58389261744973,-0.0
-415.2684563758411,-415.2684563758411,37.75167785234919,25.16778523489946,25.16778523489946,-62.919463087248644,25.16778523489946,125.83892617449729,302.0134228187935,-0.0,-12.58389261744973,-0.0
-566.2751677852378,-528.5234899328887,37.75167785234919,37.75167785234919,25.16778523489946,-62.919463087248644,88.0872483221481,125.83892617449729,50.33557046979892,-0.0,-12.58389261744973,-0.0
-717.2818791946346,-604.026845637587,-12.58389261744973,50.33557046979892,25.16778523489946,-62.919463087248644,176.1744966442962,125.83892617449729,-75.50335570469838,-0.0,-25.16778523489946,-0.0
-893.4563758389307,-666.9463087248356,-75.50335570469838,62.919463087248644,25.16778523489946,-75.50335570469838,302.0134228187935,125.83892617449729,-88.0872483221481,-0.0,-25.16778523489946,-0.0
-1019.2953020134281,-704.6979865771848,-100.67114093959783,113.25503355704757,25.16778523489946,-88.0872483221481,402.68456375839133,125.83892617449729,-50.33557046979892,25.16778523489946,-25.16778523489946,-0.0
-1044.4630872483276,-805.3691275167827,-163.59060402684648,201.34228187919567,37.75167785234919,-88.0872483221481,541.1073825503383,125.83892617449729,-37.75167785234919,25.16778523489946,-88.0872483221481,-12.58389261744973
-994.1275167785286,-798.5051860890829,-264.2617449664443,226.51006711409514,62.919463087248644,-100.67114093959783,629.1946308724864,125.83892617449729,-25.16778523489946,-0.0,-213.9261744966454,-25.16778523489946
-981.5436241610789,-791.641244661383,-415.2684563758411,138.422818791947,50.33557046979892,-163.59060402684648,613.8143176733812,125.83892617449729,-25.16778523489946,-50.33557046979892,-364.93288590604215,-88.0872483221481
-1006.7114093959783,-784.7773032336833,-604.026845637587,-37.75167785234919,25.16778523489946,-264.2617449664443,598.434004474276,125.83892617449729,-25.16778523489946,-125.83892617449729,-453.0201342281903,-188.75838926174595
-931.2080536912799,-777.9133618059832,-742.449664429534,-364.93288590604215,12.58389261744973,-302.0134228187935,583.0536912751708,138.422818791947,-25.16778523489946,-201.34228187919567,-490.77181208053946,-314.5973154362432
-755.0335570469838,-771.0494203782835,-704.6979865771848,-755.0335570469838,50.33557046979892,-201.34228187919567,567.6733780760655,138.422818791947,-25.16778523489946,-264.2617449664443,-440.4362416107405,-364.93288590604215
-591.4429530201372,-764.1854789505835,-503.35570469798915,-1057.0469798657773,113.25503355704757,-0.0,552.2930648769603,138.422818791947,-25.16778523489946,-339.7651006711427,-289.42953020134377,-327.18120805369296
-453.0201342281903,-757.3215375228838,-201.34228187919567,-1195.4697986577244,50.33557046979892,327.18120805369296,536.9127516778552,138.422818791947,-25.16778523489946,-339.7651006711427,-50.33557046979892,-201.34228187919567
-327.18120805369296,-750.4575960951837,-12.58389261744973,-1195.4697986577244,-75.50335570469838,679.5302013422854,521.5324384787499,151.00671140939676,-25.16778523489946,-188.75838926174595,264.2617449664443,50.33557046979892
-264.2617449664443,-743.593654667484,25.16778523489946,-1132.5503355704757,-151.00671140939676,943.7919463087297,506.1521252796447,151.00671140939676,-25.16778523489946,125.83892617449729,604.026845637587,339.7651006711427
-339.7651006711427,-736.729713239784,25.16778523489946,-994.1275167785286,-163.59060402684648,1119.966442953026,490.77181208053946,151.00671140939676,-25.16778523489946,465.60402684563996,918.6241610738302,604.026845637587
-453.0201342281903,-729.8657718120843,-0.0,-767.6174496644335,-125.83892617449729,1245.8053691275231,151.00671140939676,151.00671140939676,-25.16778523489946,704.6979865771848,1094.7986577181264,843.1208053691319
-528.5234899328887,-503.35570469798915,-12.58389261744973,-528.5234899328887,-37.75167785234919,1270.9731543624227,-75.50335570469838,163.59060402684648,-25.16778523489946,780.2013422818832,1069.630872483227,1006.7114093959783
-528.5234899328887,-415.2684563758411,-25.16778523489946,-339.7651006711427,-0.0,1132.5503355704757,-163.59060402684648,163.59060402684648,-25.16778523489946,755.0335570469838,956.3758389261794,1057.0469798657773
-453.0201342281903,-453.0201342281903,-25.16778523489946,-188.75838926174595,12.58389261744973,868.2885906040314,-138.422818791947,163.59060402684648,-25.16778523489946,666.9463087248356,817.9530201342324,956.3758389261794
-314.5973154362432,-453.0201342281903,-0.0,-75.50335570469838,25.16778523489946,566.2751677852378,138.422818791947,176.1744966442962,-25.16778523489946,478.1879194630897,616.6107382550367,792.785234899333
-151.00671140939676,-402.68456375839133,37.75167785234919,-0.0,37.75167785234919,314.5973154362432,503.35570469798915,188.75838926174595,-25.16778523489946,314.5973154362432,415.2684563758411,629.1946308724864
-25.16778523489946,-276.845637583894,62.919463087248644,37.75167785234919,50.33557046979892,151.00671140939676,531.0402684563786,188.75838926174595,-25.16778523489946,213.9261744966454,264.2617449664443,453.0201342281903
50.33557046979892,-125.83892617449729,62.919463087248644,50.33557046979892,50.33557046979892,25.16778523489946,558.724832214768,201.34228187919567,-25.16778523489946,125.83892617449729,151.00671140939676,302.0134228187935
88.0872483221481,-12.58389261744973,75.50335570469838,62.919463087248644,37.75167785234919,-62.919463087248644,586.4093959731574,201.34228187919567,-25.16778523489946,62.919463087248644,50.33557046979892,176.1744966442962
113.25503355704757,100.67114093959783,88.0872483221481,62.919463087248644,25.16778523489946,-100.67114093959783,614.0939597315468,213.9261744966454,-25.16778523489946,25.16778523489946,12.58389261744973,75.50335570469838
125.83892617449729,176.1744966442962,88.0872483221481,62.919463087248644,25.16778523489946,-125.83892617449729,641.7785234899362,213.9261744966454,-25.16778523489946,12.58389261744973,-0.0,25.16778523489946
138.422818791947,226.51006711409514,100.67114093959783,75.50335570469838,25.16778523489946,-125.83892617449729,453.0201342281903,226.51006711409514,-25.16778523489946,12.58389261744973,-0.0,-0.0
151.00671140939676,239.09395973154486,113.25503355704757,75.50335570469838,25.16778523489946,-113.25503355704757,188.75838926174595,239.09395973154486,-25.16778523489946,25.16778523489946,-0.0,-0.0
163.59060402684648,264.2617449664443,125.83892617449729,75.50335570469838,25.16778523489946,-113.25503355704757,25.16778523489946,239.09395973154486,-25.16778523489946,25.16778523489946,-0.0,12.58389261744973
163.59060402684648,276.845637583894,125.83892617449729,75.50335570469838,25.16778523489946,-113.25503355704757,-50.33557046979892,251.67785234899458,-37.75167785234919,25.16778523489946,-0.0,-0.0
163.59060402684648,289.42953020134377,125.83892617449729,75.50335570469838,25.16778523489946,-113.25503355704757,-100.67114093959783,251.67785234899458,-37.75167785234919,25.16778523489946,-0.0,-0.0
163.59060402684648,302.0134228187935,138.422818791947,75.50335570469838,25.16778523489946,-125.83892617449729,-125.83892617449729,251.67785234899458,-50.33557046979892,25.16778523489946,-0.0,-0.0
176.1744966442962,314.5973154362432,138.422818791947,75.50335570469838,25.16778523489946,-125.83892617449729,-151.00671140939676,239.09395973154486,-50.33557046979892,25.16778523489946,-0.0,-0.0
176.1744966442962,327.18120805369296,138.422818791947,75.50335570469838,37.75167785234919,-125.83892617449729,-163.59060402684648,226.51006711409514,-50.33557046979892,25.16778523489946,-0.0,-0.0
176.1744966442962,339.7651006711427,151.00671140939676,75.50335570469838,25.16778523489946,-125.83892617449729,-176.1744966442962,213.9261744966454,-62.919463087248644,37.75167785234919,-0.0,-0.0
188.75838926174595,352.3489932885924,151.00671140939676,75.50335570469838,25.16778523489946,-125.83892617449729,-188.75838926174595,201.34228187919567,-75.50335570469838,37.75167785234919,-0.0,-0.0
201.34228187919567,364.93288590604215,151.00671140939676,75.50335570469838,25.16778523489946,-125.83892617449729,-188.75838926174595,163.59060402684648,-88.0872483221481,50.33557046979892,12.58389261744973,-0.0
213.9261744966454,377.5167785234919,163.59060402684648,75.50335570469838,25.16778523489946,-125.83892617449729,-201.34228187919567,138.422818791947,-100.67114093959783,50.33557046979892,12.58389261744973,-0.0
226.51006711409514,390.1006711409416,176.1744966442962,62.919463087248644,37.75167785234919,-125.83892617449729,-213.9261744966454,100.67114093959783,-113.25503355704757,50.33557046979892,12.58389261744973,12.58389261744973
239.09395973154486,415.2684563758411,176.1744966442962,75.50335570469838,37.75167785234919,-125.83892617449729,-226.51006711409514,62.919463087248644,-125.83892617449729,50.33557046979892,12.58389261744973,-0.0
251.67785234899458,427.8523489932908,188.75838926174595,75.50335570469838,25.16778523489946,-125.83892617449729,-226.51006711409514,25.16778523489946,-151.00671140939676,50.33557046979892,25.16778523489946,-0.0
264.2617449664443,453.0201342281903,201.34228187919567,75.50335570469838,25.16778523489946,-125.83892617449729,-239.09395973154486,-0.0,-163.59060402684648,50.33557046979892,25.16778523489946,12.58389261744973
276.845637583894,478.1879194630897,213.9261744966454,75.50335570469838,37.75167785234919,-125.83892617449729,-251.67785234899458,-25.16778523489946,-176.1744966442962,50.33557046979892,25.16778523489946,-0.0
302.0134228187935,490.77181208053946,239.09395973154486,75.50335570469838,25.16778523489946,-125.83892617449729,-251.67785234899458,-25.16778523489946,-201.34228187919567,50.33557046979892,25.16778523489946,-0.0
327.18120805369296,515.9395973154388,251.67785234899458,88.0872483221481,37.75167785234919,-125.83892617449729,-264.2617449664443,-25.16778523489946,-226.51006711409514,50.33557046979892,12.58389261744973,-0.0
352.3489932885924,541.1073825503383,264.2617449664443,88.0872483221481,25.16778523489946,-125.83892617449729,-276.845637583894,-25.16778523489946,-239.09395973154486,50.33557046979892,12.58389261744973,-0.0
377.5167785234919,578.8590604026875,289.42953020134377,88.0872483221481,25.16778523489946,-125.83892617449729,-302.0134228187935,-25.16778523489946,-239.09395973154486,50.33557046979892,12.58389261744973,-0.0
402.68456375839133,616.6107382550367,302.0134228187935,88.0872483221481,25.16778523489946,-138.422818791947,-314.5973154362432,-25.16778523489946,-239.09395973154486,37.75167785234919,-0.0,-0.0
427.8523489932908,654.3624161073859,327.18120805369296,88.0872483221481,25.16778523489946,-138.422818791947,-327.18120805369296,-12.58389261744973,-213.9261744966454,25.16778523489946,-0.0,-0.0
453.0201342281903,692.1140939597351,352.3489932885924,100.67114093959783,25.16778523489946,-125.83892617449729,-339.7651006711427,-0.0,-201.34228187919567,25.16778523489946,-0.0,-0.0
490.77181208053946,742.449664429534,377.5167785234919,100.67114093959783,25.16778523489946,-125.83892617449729,-364.93288590604215,-0.0,-176.1744966442962,25.16778523489946,-0.0,-0.0
515.9395973154388,792.785234899333,390.1006711409416,113.25503355704757,25.16778523489946,-138.422818791947,-377.5167785234919,-0.0,-151.00671140939676,12.58389261744973,-12.58389261744973,-12.58389261744973
541.1073825503383,843.1208053691319,415.2684563758411,113.25503355704757,25.16778523489946,-151.00671140939676,-402.68456375839133,12.58389261744973,-113.25503355704757,12.58389261744973,-12.58389261744973,-12.58389261744973
578.8590604026875,893.4563758389307,440.4362416107405,125.83892617449729,12.58389261744973,-151.00671140939676,-427.8523489932908,12.58389261744973,-88.0872483221481,12.58389261744973,-25.16778523489946,-25.16778523489946
604.026845637587,943.7919463087297,465.60402684563996,138.422818791947,12.58389261744973,-163.59060402684648,-465.60402684563996,25.16778523489946,-62.919463087248644,-0.0,-37.75167785234919,-25.16778523489946
616.6107382550367,994.1275167785286,490.77181208053946,151.00671140939676,12.58389261744973,-163.59060402684648,-490.77181208053946,25.16778523489946,-50.33557046979892,-12.58389261744973,-37.75167785234919,-25.16778523489946
629.1946308724864,1031.8791946308777,503.35570469798915,163.59060402684648,12.58389261744973,-163.59060402684648,-515.9395973154388,25.16778523489946,-37.75167785234919,-25.16778523489946,-50.33557046979892,-37.75167785234919
641.7785234899362,1082.2147651006767,528.5234899328887,163.59060402684648,12.58389261744973,-176.1744966442962,-541.1073825503383,25.16778523489946,-25.16778523489946,-37.75167785234919,-62.919463087248644,-37.75167785234919
641.7785234899362,1119.966442953026,541.1073825503383,176.1744966442962,-0.0,-176.1744966442962,-578.8590604026875,25.16778523489946,-12.58389261744973,-50.33557046979892,-75.50335570469838,-50.33557046979892
629.1946308724864,1157.718120805375,541.1073825503383,188.75838926174595,-0.0,-188.75838926174595,-616.6107382550367,25.16778523489946,-0.0,-62.919463087248644,-88.0872483221481,-62.919463087248644
616.6107382550367,1170.3020134228248,541.1073825503383,188.75838926174595,-0.0,-201.34228187919567,-641.7785234899362,25.16778523489946,-0.0,-75.50335570469838,-100.67114093959783,-62.919463087248644
591.4429530201372,1182.8859060402744,528.5234899328887,188.75838926174595,-0.0,-213.9261744966454,-666.9463087248356,37.75167785234919,-0.0,-88.0872483221481,-113.25503355704757,-75.50335570469838
553.691275167788,1195.4697986577244,490.77181208053946,188.75838926174595,-0.0,-213.9261744966454,-704.6979865771848,37.75167785234919,-0.0,-100.67114093959783,-125.83892617449729,-75.50335570469838
528.5234899328887,1182.8859060402744,465.60402684563996,188.75838926174595,-0.0,-213.9261744966454,-717.2818791946346,37.75167785234919,-0.0,-100.67114093959783,-138.422818791947,-75.50335570469838
478.1879194630897,1157.718120805375,427.8523489932908,176.1744966442962,-0.0,-213.9261744966454,-742.449664429534,37.75167785234919,-0.0,-113.25503355704757,-151.00671140939676,-88.0872483221481
427.8523489932908,1119.966442953026,377.5167785234919,163.59060402684648,-0.0,-213.9261744966454,-767.6174496644335,37.75167785234919,12.58389261744973,-113.25503355704757,-151.00671140939676,-100.67114093959783
390.1006711409416,1057.0469798657773,327.18120805369296,151.00671140939676,-0.0,-201.34228187919567,-767.6174496644335,37.75167785234919,12.58389261744973,-113.25503355704757,-151.00671140939676,-100.67114093959783
339.7651006711427,981.5436241610789,289.42953020134377,125.83892617449729,-0.0,-188.75838926174595,-780.2013422818832,37.75167785234919,12.58389261744973,-113.25503355704757,-151.00671140939676,-100.67114093959783
276.845637583894,893.4563758389307,239.09395973154486,100.67114093959783,-0.0,-188.75838926174595,-780.2013422818832,50.33557046979892,12.58389261744973,-113.25503355704757,-151.00671140939676,-100.67114093959783
226.51006711409514,805.3691275167827,201.34228187919567,88.0872483221481,-0.0,-163.59060402684648,-755.0335570469838,50.33557046979892,12.58389261744973,-88.0872483221481,-138.422818791947,-100.67114093959783
188.75838926174595,704.6979865771848,176.1744966442962,75.50335570469838,-0.0,-125.83892617449729,-729.8657718120843,50.33557046979892,12.58389261744973,-75.50335570469838,-125.83892617449729,-88.0872483221481
138.422818791947,616.6107382550367,151.00671140939676,50.33557046979892,12.58389261744973,-113.25503355704757,-692.1140939597351,50.33557046979892,12.58389261744973,-75.50335570469838,-113.25503355704757,-75.50335570469838
100.67114093959783,515.9395973154388,125.83892617449729,37.75167785234919,12.58389261744973,-113.25503355704757,-641.7785234899362,37.75167785234919,12.58389261744973,-75.50335570469838,-113.25503355704757,-62.919463087248644
75.50335570469838,440.4362416107405,100.67114093959783,25.16778523489946,12.58389261744973,-100.67114093959783,-578.8590604026875,37.75167785234919,12.58389261744973,-62.919463087248644,-100.67114093959783,-62.919463087248644
50.33557046979892,364.93288590604215,88.0872483221481,12.58389261744973,12.58389261744973,-88.0872483221481,-503.35570469798915,37.75167785234919,25.16778523489946,-50.33557046979892,-75.50335570469838,-50.33557046979892
25.16778523489946,302.0134228187935,75.50335570469838,-0.0,12.58389261744973,-75.50335570469838,-440.4362416107405,37.75167785234919,25.16778523489946,-37.75167785234919,-62.919463087248644,-37.75167785234919
0.0,251.67785234899458,75.50335570469838,-0.0,12.58389261744973,-62.919463087248644,-352.3489932885924,37.75167785234919,25.16778523489946,-25.16778523489946,-50.33557046979892,-25.16778523489946
0.0,201.34228187919567,62.919463087248644,-0.0,12.58389261744973,-50.33557046979892,-289.42953020134377,37.75167785234919,25.16778523489946,-12.58389261744973,-37.75167785234919,-12.58389261744973
0.0,176.1744966442962,62.919463087248644,-0.0,12.58389261744973,-37.75167785234919,-226.51006711409514,37.75167785234919,25.16778523489946,-0.0,-25.16778523489946,-0.0
0.0,151.00671140939676,62.919463087248644,-0.0,25.16778523489946,-37.75167785234919,-176.1744966442962,37.75167785234919,25.16778523489946,12.58389261744973,-12.58389261744973,-0.0
0.0,138.422818791947,62.919463087248644,-12.58389261744973,25.16778523489946,-25.16778523489946,-138.422818791947,25.16778523489946,12.58389261744973,12.58389261744973,-12.58389261744973,12.58389261744973
0.0,113.25503355704757,62.919463087248644,-12.58389261744973,25.16778523489946,-25.16778523489946,-100.67114093959783,25.16778523489946,12.58389261744973,12.58389261744973,-0.0,12.58389261744973
0.0,113.25503355704757,0.0,-12.58389261744973,0.0,0.0,-75.50335570469838,12.58389261744973,0.0,12.58389261744973,-0.0,25.16778523489946
0.0,113.25503355704757,0.0,-12.58389261744973,0.0,0.0,-50.33557046979892,12.58389261744973,0.0,25.16778523489946,0.0,25.16778523489946
0.0,100.67114093959783,0.0,0.0,0.0,0.0,-37.75167785234919,0.0,0.0,25.16778523489946,0.0,25.16778523489946
0.0,88.0872483221481,0.0,0.0,0.0,0.0,-37.75167785234919,0.0,0.0,0.0,0.0,0.0
0.0,88.0872483221481,0.0,0.0,0.0,0.0,-25.16778523489946,0.0,0.0,0.0,0.0,0.0
0.0,88.0872483221481,0.0,0.0,0.0,0.0,-25.16778523489946,0.0,0.0,0.0,0.0,0.0
0.0,88.0872483221481,0.0,0.0,0.0,0.0,-25.16778523489946,0.0,0.0,0.0,0.0,0.0
0.0,88.0872483221481,0.0,0.0,0.0,0.0,-12.58389261744973,0.0,0.0,0.0,0.0,0.0
0.0,88.0872483221481,0.0,0.0,0.0,0.0,-12.58389261744973,0.0,0.0,0.0,0.0,0.0
0.0,88.0872483221481,0.0,0.0,0.0,0.0,-12.58389261744973,0.0,0.0,0.0,0.0,0.0
0.0,100.67114093959783,0.0,0.0,0.0,0.0,-12.58389261744973,0.0,0.0,0.0,0.0,0.0
0.0,100.67114093959783,0.0,0.0,0.0,0.0,-12.58389261744973,0.0,0.0,0.0,0.0,0.0
0.0,100.67114093959783,0.0,0.0,0.0,0.0,-12.58389261744973,0.0,0.0,0.0,0.0,0.0
0.0,88.0872483221481,0.0,0.0,0.0,0.0,-12.58389261744973,0.0,0.0,0.0,0.0,0.0
0.0,88.0872483221481,0.0,0.0,0.0,0.0,-12.58389261744973,0.0,0.0,0.0,0.0,0.0
0.0,88.0872483221481,0.0,0.0,0.0,0.0,-12.58389261744973,0.0,0.0,0.0,0.0,0.0
0.0,88.0872483221481,0.0,0.0,0.0,0.0,-12.58389261744973,0.0,0.0,0.0,0.0,0.0
0.0,88.0872483221481,0.0,0.0,0.0,0.0,-12.58389261744973,0.0,0.0,0.0,0.0,0.0
0.0,88.0872483221481,0.0,0.0,0.0,0.0,-12.58389261744973,0.0,0.0,0.0,0.0,0.0
0.0,88.0872483221481,0.0,0.0,0.0,0.0,-12.58389261744973,0.0,0.0,0.0,0.0,0.0
0.0,75.50335570469838,0.0,0.0,0.0,0.0,-12.58389261744973,0.0,0.0,0.0,0.0,0.0
0.0,75.50335570469838,0.0,0.0,0.0,0.0,-12.58389261744973,0.0,0.0,0.0,0.0,0.0
0.0,75.50335570469838,0.0,0.0,0.0,0.0,-12.58389261744973,0.0,0.0,0.0,0.0,0.0
0.0,75.50335570469838,0.0,0.0,0.0,0.0,-12.58389261744973,0.0,0.0,0.0,0.0,0.0
0.0,62.919463087248644,0.0,0.0,0.0,0.0,-12.58389261744973,0.0,0.0,0.0,0.0,0.0
0.0,62.919463087248644,0.0,0.0,0.0,0.0,-12.58389261744973,0.0,0.0,0.0,0.0,0.0
0.0,62.919463087248644,0.0,0.0,0.0,0.0,-12.58389261744973,0.0,0.0,0.0,0.0,0.0
0.0,62.919463087248644,0.0,0.0,0.0,0.0,-12.58389261744973,0.0,0.0,0.0,0.0,0.0
0.0,62.919463087248644,0.0,0.0,0.0,0.0,-12.58389261744973,0.0,0.0,0.0,0.0,0.0
0.0,62.919463087248644,0.0,0.0,0.0,0.0,-12.58389261744973,0.0,0.0,0.0,0.0,0.0
0.0,62.919463087248644,0.0,0.0,0.0,0.0,-12.58389261744973,0.0,0.0,0.0,0.0,0.0
0.0,62.919463087248644,0.0,0.0,0.0,0.0,-12.58389261744973,0.0,0.0,0.0,0.0,0.0
0.0,62.919463087248644,0.0,0.0,0.0,0.0,-12.58389261744973,0.0,0.0,0.0,0.0,0.0
0.0,50.33557046979892,0.0,0.0,0.0,0.0,-12.58389261744973,0.0,0.0,0.0,0.0,0.0
0.0,50.33557046979892,0.0,0.0,0.0,0.0,-12.58389261744973,0.0,0.0,0.0,0.0,0.0
0.0,50.33557046979892,0.0,0.0,0.0,0.0,-12.58389261744973,0.0,0.0,0.0,0.0,0.0
0.0,50.33557046979892,0.0,0.0,0.0,0.0,-12.58389261744973,0.0,0.0,0.0,0.0,0.0
0.0,50.33557046979892,0.0,0.0,0.0,0.0,-12.58389261744973,0.0,0.0,0.0,0.0,0.0
0.0,50.33557046979892,0.0,0.0,0.0,0.0,-12.58389261744973,0.0,0.0,0.0,0.0,0.0
0.0,50.33557046979892,0.0,0.0,0.0,0.0,-12.58389261744973,0.0,0.0,0.0,0.0,0.0
0.0,50.33557046979892,0.0,0.0,0.0,0.0,-12.58389261744973,0.0,0.0,0.0,0.0,0.0
0.0,50.33557046979892,0.0,0.0,0.0,0.0,-12.58389261744973,0.0,0.0,0.0,0.0,0.0
0.0,50.33557046979892,0.0,0.0,0.0,0.0,-12.58389261744973,0.0,0.0,0.0,0.0,0.0
0.0,50.33557046979892,0.0,0.0,0.0,0.0,-12.58389261744973,0.0,0.0,0.0,0.0,0.0
0.0,50.33557046979892,0.0,0.0,0.0,0.0,-12.58389261744973,0.0,0.0,0.0,0.0,0.0
0.0,50.33557046979892,0.0,0.0,0.0,0.0,-12.58389261744973,0.0,0.0,0.0,0.0,0.0
0.0,50.33557046979892,0.0,0.0,0.0,0.0,-12.58389261744973,0.0,0.0,0.0,0.0,0.0
0.0,50.33557046979892,0.0,0.0,0.0,0.0,-12.58389261744973,0.0,0.0,0.0,0.0,0.0
0.0,50.33557046979892,0.0,0.0,0.0,0.0,-12.58389261744973,0.0,0.0,0.0,0.0,0.0
0.0,50.33557046979892,0.0,0.0,0.0,0.0,-12.58389261744973,0.0,0.0,0.0,0.0,0.0
0.0,50.33557046979892,0.0,0.0,0.0,0.0,-12.58389261744973,0.0,0.0,0.0,0.0,0.0
0.0,50.33557046979892,0.0,0.0,0.0,0.0,-12.58389261744973,0.0,0.0,0.0,0.0,0.0
0.0,50.33557046979892,0.0,0.0,0.0,0.0,-12.58389261744973,0.0,0.0,0.0,0.0,0.0
0.0,50.33557046979892,0.0,0.0,0.0,0.0,-12.58389261744973,0.0,0.0,0.0,0.0,0.0
0.0,50.33557046979892,0.0,0.0,0.0,0.0,-12.58389261744973,0.0,0.0,0.0,0.0,0.0
0.0,50.33557046979892,0.0,0.0,0.0,0.0,-12.58389261744973,0.0,0.0,0.0,0.0,0.0
0.0,50.33557046979892,0.0,0.0,0.0,0.0,-12.58389261744973,0.0,0.0,0.0,0.0,0.0
0.0,50.33557046979892,0.0,0.0,0.0,0.0,-12.58389261744973,0.0,0.0,0.0,0.0,0.0
0.0,50.33557046979892,0.0,0.0,0.0,0.0,-12.58389261744973,0.0,0.0,0.0,0.0,0.0
0.0,50.33557046979892,0.0,0.0,0.0,0.0,-12.58389261744973,0.0,0.0,0.0,0.0,0.0
0.0,50.33557046979892,0.0,0.0,0.0,0.0,-12.58389261744973,0.0,0.0,0.0,0.0,0.0
0.0,50.33557046979892,0.0,0.0,0.0,0.0,-12.58389261744973,0.0,0.0,0.0,0.0,0.0
0.0,50.33557046979892,0.0,0.0,0.0,0.0,-12.58389261744973,0.0,0.0,0.0,0.0,0.0
0.0,50.33557046979892,0.0,0.0,0.0,0.0,-12.58389261744973,0.0,0.0,0.0,0.0,0.0
0.0,50.33557046979892,0.0,0.0,0.0,0.0,-12.58389261744973,0.0,0.0,0.0,0.0,0.0
0.0,50.33557046979892,0.0,0.0,0.0,0.0,-12.58389261744973,0.0,0.0,0.0,0.0,0.0
0.0,50.33557046979892,0.0,0.0,0.0,0.0,-12.58389261744973,0.0,0.0,0.0,0.0,0.0
0.0,37.75167785234919,0.0,0.0,0.0,0.0,-12.58389261744973,0.0,0.0,0.0,0.0,0.0
0.0,37.75167785234919,0.0,0.0,0.0,0.0,-12.58389261744973,0.0,0.0,0.0,0.0,0.0
0.0,50.33557046979892,0.0,0.0,0.0,0.0,-12.58389261744973,0.0,0.0,0.0,0.0,0.0
0.0,50.33557046979892,0.0,0.0,0.0,0.0,-12.58389261744973,0.0,0.0,0.0,0.0,0.0
0.0,50.33557046979892,0.0,0.0,0.0,0.0,-12.58389261744973,0.0,0.0,0.0,0.0,0.0
0.0,50.33557046979892,0.0,0.0,0.0,0.0,-12.58389261744973,0.0,0.0,0.0,0.0,0.0
0.0,50.33557046979892,0.0,0.0,0.0,0.0,-12.58389261744973,0.0,0.0,0.0,0.0,0.0
0.0,50.33557046979892,0.0,0.0,0.0,0.0,-12.58389261744973,0.0,0.0,0.0,0.0,0.0
0.0,50.33557046979892,0.0,0.0,0.0,0.0,-12.58389261744973,0.0,0.0,0.0,0.0,0.0
0.0,50.33557046979892,0.0,0.0,0.0,0.0,-12.58389261744973,0.0,0.0,0.0,0.0,0.0
0.0,50.33557046979892,0.0,0.0,0.0,0.0,-12.58389261744973,0.0,0.0,0.0,0.0,0.0
0.0,37.75167785234919,0.0,0.0,0.0,0.0,-12.58389261744973,0.0,0.0,0.0,0.0,0.0
0.0,37.75167785234919,0.0,0.0,0.0,0.0,-12.58389261744973,0.0,0.0,0.0,0.0,0.0
0.0,50.33557046979892,0.0,0.0,0.0,0.0,-12.58389261744973,0.0,0.0,0.0,0.0,0.0
0.0,50.33557046979892,0.0,0.0,0.0,0.0,-25.16778523489946,0.0,0.0,0.0,0.0,0.0
0.0,62.919463087248644,0.0,0.0,0.0,0.0,-25.16778523489946,0.0,0.0,0.0,0.0,0.0
0.0,62.919463087248644,0.0,0.0,0.0,0.0,-25.16778523489946,0.0,0.0,0.0,0.0,0.0
0.0,75.50335570469838,0.0,0.0,0.0,0.0,-25.16778523489946,0.0,0.0,0.0,0.0,0.0
0.0,88.0872483221481,0.0,0.0,0.0,0.0,-12.58389261744973,0.0,0.0,0.0,0.0,0.0
0.0,100.67114093959783,0.0,0.0,0.0,0.0,-12.58389261744973,0.0,0.0,0.0,0.0,0.0
0.0,125.83892617449729,0.0,0.0,0.0,0.0,-0.0,0.0,0.0,0.0,0.0,0.0
0.0,138.422818791947,0.0,0.0,0.0,0.0,12.58389261744973,0.0,0.0,0.0,0.0,0.0
0.0,151.00671140939676,0.0,0.0,0.0,0.0,12.58389261744973,0.0,0.0,0.0,0.0,0.0
0.0,151.00671140939676,0.0,0.0,0.0,0.0,12.58389261744973,0.0,0.0,0.0,0.0,0.0
0.0,163.59060402684648,0.0,0.0,0.0,0.0,25.16778523489946,0.0,0.0,0.0,0.0,0.0
0.0,176.1744966442962,0.0,0.0,0.0,0.0,37.75167785234919,0.0,0.0,0.0,0.0,0.0
0.0,163.59060402684648,0.0,0.0,0.0,0.0,25.16778523489946,0.0,0.0,0.0,0.0,0.0
0.0,138.422818791947,0.0,0.0,0.0,0.0,12.58389261744973,0.0,0.0,0.0,0.0,0.0
0.0,113.25503355704757,0.0,0.0,0.0,0.0,-12.58389261744973,0.0,0.0,0.0,0.0,0.0
0.0,113.25503355704757,0.0,0.0,0.0,0.0,-50.33557046979892,0.0,0.0,0.0,0.0,0.0
0.0,113.25503355704757,0.0,0.0,0.0,0.0,-75.50335570469838,0.0,0.0,0.0,0.0,0.0
0.0,100.67114093959783,0.0,0.0,0.0,0.0,-75.50335570469838,0.0,0.0,0.0,0.0,0.0
0.0,75.50335570469838,0.0,0.0,0.0,0.0,-88.0872483221481,0.0,0.0,0.0,0.0,0.0
0.0,62.919463087248644,0.0,0.0,0.0,0.0,-88.0872483221481,0.0,0.0,0.0,0.0,0.0
0.0,50.33557046979892,0.0,0.0,0.0,0.0,-100.67114093959783,0.0,0.0,0.0,0.0,0.0
0.0,37.75167785234919,0.0,0.0,0.0,0.0,-100.67114093959783,0.0,0.0,0.0,0.0,0.0
0.0,25.16778523489946,0.0,0.0,0.0,0.0,-100.67114093959783,0.0,0.0,0.0,0.0,0.0
0.0,12.58389261744973,0.0,0.0,0.0,0.0,-100.67114093959783,0.0,0.0,0.0,0.0,0.0
0.0,-0.0,0.0,0.0,0.0,0.0,-88.0872483221481,0.0,0.0,0.0,0.0,0.0
0.0,-0.0,0.0,0.0,0.0,0.0,-75.50335570469838,0.0,0.0,0.0,0.0,0.0
0.0,-0.0,0.0,0.0,0.0,0.0,-62.919463087248644,0.0,0.0,0.0,0.0,0.0
0.0,-0.0,0.0,0.0,0.0,0.0,-62.919463087248644,0.0,0.0,0.0,0.0,0.0
0.0,-0.0,0.0,0.0,0.0,0.0,-50.33557046979892,0.0,0.0,0.0,0.0,0.0
0.0,-12.58389261744973,0.0,0.0,0.0,0.0,-50.33557046979892,0.0,0.0,0.0,0.0,0.0
0.0,-12.58389261744973,0.0,0.0,0.0,0.0,-50.33557046979892,0.0,0.0,0.0,0.0,0.0
0.0,-12.58389261744973,0.0,0.0,0.0,0.0,-37.75167785234919,0.0,0.0,0.0,0.0,0.0
0.0,-37.75167785234919,0.0,0.0,0.0,0.0,-37.75167785234919,0.0,0.0,0.0,0.0,0.0
0.0,-125.83892617449729,0.0,0.0,0.0,0.0,-25.16778523489946,0.0,0.0,0.0,0.0,0.0
0.0,-201.34228187919567,0.0,0.0,0.0,0.0,-12.58389261744973,0.0,0.0,0.0,0.0,0.0
0.0,-138.422818791947,0.0,0.0,0.0,0.0,37.75167785234919,0.0,0.0,0.0,0.0,0.0
0.0,50.33557046979892,0.0,0.0,0.0,0.0,176.1744966442962,0.0,0.0,0.0,0.0,0.0
0.0,427.8523489932908,0.0,0.0,0.0,0.0,390.1006711409416,0.0,0.0,0.0,0.0,0.0
0.0,1145.1342281879254,0.0,0.0,0.0,0.0,503.35570469798915,0.0,0.0,0.0,0.0,0.0
0.0,1245.8053691275231,0.0,0.0,0.0,0.0,440.4362416107405,0.0,0.0,0.0,0.0,0.0
0.0,1472.3154362416183,0.0,0.0,0.0,0.0,352.3489932885924,0.0,0.0,0.0,0.0,0.0
0.0,1585.570469798666,0.0,0.0,0.0,0.0,-88.0872483221481,0.0,0.0,0.0,0.0,0.0
0.0,616.6107382550367,0.0,0.0,0.0,0.0,-406.8791946308747,0.0,0.0,0.0,0.0,0.0
0.0,1094.7986577181264,0.0,0.0,0.0,0.0,-725.6711409396011,0.0,0.0,0.0,0.0,0.0
0.0,1384.2281879194702,0.0,0.0,0.0,0.0,-1044.4630872483276,0.0,0.0,0.0,0.0,0.0
0.0,943.7919463087297,0.0,0.0,0.0,0.0,-931.2080536912799,0.0,0.0,0.0,0.0,0.0
0.0,604.026845637587,0.0,0.0,0.0,0.0,-855.7046979865816,0.0,0.0,0.0,0.0,0.0
0.0,364.93288590604215,0.0,0.0,0.0,0.0,-943.7919463087297,0.0,0.0,0.0,0.0,0.0
0.0,176.1744966442962,0.0,0.0,0.0,0.0,-1082.2147651006767,0.0,0.0,0.0,0.0,0.0
0.0,75.50335570469838,0.0,0.0,0.0,0.0,-654.3624161073859,0.0,0.0,0.0,0.0,0.0
0.0,-0.0,0.0,0.0,0.0,0.0,-390.1006711409416,0.0,0.0,0.0,0.0,0.0
0.0,-50.33557046979892,0.0,0.0,0.0,0.0,-213.9261744966454,0.0,0.0,0.0,0.0,0.0
0.0,-62.919463087248644,0.0,0.0,0.0,0.0,-75.50335570469838,0.0,0.0,0.0,0.0,0.0
0.0,-62.919463087248644,0.0,0.0,0.0,0.0,-0.0,0.0,0.0,0.0,0.0,0.0
0.0,-62.919463087248644,0.0,0.0,0.0,0.0,62.919463087248644,0.0,0.0,0.0,0.0,0.0
0.0,-75.50335570469838,0.0,0.0,0.0,0.0,88.0872483221481,0.0,0.0,0.0,0.0,0.0
0.0,-75.50335570469838,0.0,0.0,0.0,0.0,100.67114093959783,0.0,0.0,0.0,0.0,0.0
0.0,-75.50335570469838,0.0,0.0,0.0,0.0,100.67114093959783,0.0,0.0,0.0,0.0,0.0
0.0,-62.919463087248644,0.0,0.0,0.0,0.0,113.25503355704757,0.0,0.0,0.0,0.0,0.0
0.0,-62.919463087248644,0.0,0.0,0.0,0.0,125.83892617449729,0.0,0.0,0.0,0.0,0.0
0.0,-62.919463087248644,0.0,0.0,0.0,0.0,125.83892617449729,0.0,0.0,0.0,0.0,0.0
0.0,-62.919463087248644,0.0,0.0,0.0,0.0,125.83892617449729,0.0,0.0,0.0,0.0,0.0
0.0,-62.919463087248644,0.0,0.0,0.0,0.0,138.422818791947,0.0,0.0,0.0,0.0,0.0
0.0,-62.919463087248644,0.0,0.0,0.0,0.0,138.422818791947,0.0,0.0,0.0,0.0,0.0
0.0,-50.33557046979892,0.0,0.0,0.0,0.0,138.422818791947,0.0,0.0,0.0,0.0,0.0
0.0,-50.33557046979892,0.0,0.0,0.0,0.0,138.422818791947,0.0,0.0,0.0,0.0,0.0
0.0,-50.33557046979892,0.0,0.0,0.0,0.0,138.422818791947,0.0,0.0,0.0,0.0,0.0
0.0,-62.919463087248644,0.0,0.0,0.0,0.0,138.422818791947,0.0,0.0,0.0,0.0,0.0
0.0,-62.919463087248644,0.0,0.0,0.0,0.0,151.00671140939676,0.0,0.0,0.0,0.0,0.0
0.0,-62.919463087248644,0.0,0.0,0.0,0.0,151.00671140939676,0.0,0.0,0.0,0.0,0.0
0.0,-62.919463087248644,0.0,0.0,0.0,0.0,151.00671140939676,0.0,0.0,0.0,0.0,0.0
0.0,-62.919463087248644,0.0,0.0,0.0,0.0,151.00671140939676,0.0,0.0,0.0,0.0,0.0
0.0,-62.919463087248644,0.0,0.0,0.0,0.0,151.00671140939676,0.0,0.0,0.0,0.0,0.0
0.0,-62.919463087248644,0.0,0.0,0.0,0.0,163.59060402684648,0.0,0.0,0.0,0.0,0.0
0.0,-75.50335570469838,0.0,0.0,0.0,0.0,163.59060402684648,0.0,0.0,0.0,0.0,0.0
0.0,-75.50335570469838,0.0,0.0,0.0,0.0,176.1744966442962,0.0,0.0,0.0,0.0,0.0
0.0,-75.50335570469838,0.0,0.0,0.0,0.0,176.1744966442962,0.0,0.0,0.0,0.0,0.0
0.0,-88.0872483221481,0.0,0.0,0.0,0.0,176.1744966442962,0.0,0.0,0.0,0.0,0.0
0.0,-88.0872483221481,0.0,0.0,0.0,0.0,188.75838926174595,0.0,0.0,0.0,0.0,0.0
0.0,-100.67114093959783,0.0,0.0,0.0,0.0,188.75838926174595,0.0,0.0,0.0,0.0,0.0
0.0,-113.25503355704757,0.0,0.0,0.0,0.0,188.75838926174595,0.0,0.0,0.0,0.0,0.0
0.0,-113.25503355704757,0.0,0.0,0.0,0.0,201.34228187919567,0.0,0.0,0.0,0.0,0.0
0.0,-125.83892617449729,0.0,0.0,0.0,0.0,213.9261744966454,0.0,0.0,0.0,0.0,0.0
0.0,-125.83892617449729,0.0,0.0,0.0,0.0,213.9261744966454,0.0,0.0,0.0,0.0,0.0
0.0,-138.422818791947,0.0,0.0,0.0,0.0,226.51006711409514,0.0,0.0,0.0,0.0,0.0
0.0,-151.00671140939676,0.0,0.0,0.0,0.0,239.09395973154486,0.0,0.0,0.0,0.0,0.0
0.0,-163.59060402684648,0.0,0.0,0.0,0.0,251.67785234899458,0.0,0.0,0.0,0.0,0.0
0.0,-163.59060402684648,0.0,0.0,0.0,0.0,264.2617449664443,0.0,0.0,0.0,0.0,0.0
0.0,-176.1744966442962,0.0,0.0,0.0,0.0,276.845637583894,0.0,0.0,0.0,0.0,0.0
0.0,-176.1744966442962,0.0,0.0,0.0,0.0,289.42953020134377,0.0,0.0,0.0,0.0,0.0
0.0,-188.75838926174595,0.0,0.0,0.0,0.0,302.0134228187935,0.0,0.0,0.0,0.0,0.0
0.0,-188.75838926174595,0.0,0.0,0.0,0.0,314.5973154362432,0.0,0.0,0.0,0.0,0.0
0.0,-176.1744966442962,0.0,0.0,0.0,0.0,314.5973154362432,0.0,0.0,0.0,0.0,0.0
0.0,-163.59060402684648,0.0,0.0,0.0,0.0,327.18120805369296,0.0,0.0,0.0,0.0,0.0
0.0,-151.00671140939676,0.0,0.0,0.0,0.0,339.7651006711427,0.0,0.0,0.0,0.0,0.0
0.0,-138.422818791947,0.0,0.0,0.0,0.0,339.7651006711427,0.0,0.0,0.0,0.0,0.0
0.0,-113.25503355704757,0.0,0.0,0.0,0.0,352.3489932885924,0.0,0.0,0.0,0.0,0.0
0.0,-88.0872483221481,0.0,0.0,0.0,0.0,352.3489932885924,0.0,0.0,0.0,0.0,0.0
0.0,-62.919463087248644,0.0,0.0,0.0,0.0,339.7651006711427,0.0,0.0,0.0,0.0,0.0
0.0,-37.75167785234919,0.0,0.0,0.0,0.0,327.18120805369296,0.0,0.0,0.0,0.0,0.0
0.0,-25.16778523489946,0.0,0.0,0.0,0.0,314.5973154362432,0.0,0.0,0.0,0.0,0.0
0.0,-0.0,0.0,0.0,0.0,0.0,276.845637583894,0.0,0.0,0.0,0.0,0.0
0.0,12.58389261744973,0.0,0.0,0.0,0.0,239.09395973154486,0.0,0.0,0.0,0.0,0.0
0.0,25.16778523489946,0.0,0.0,0.0,0.0,213.9261744966454,0.0,0.0,0.0,0.0,0.0
0.0,37.75167785234919,0.0,0.0,0.0,0.0,176.1744966442962,0.0,0.0,0.0,0.0,0.0
0.0,50.33557046979892,0.0,0.0,0.0,0.0,125.83892617449729,0.0,0.0,0.0,0.0,0.0
0.0,62.919463087248644,0.0,0.0,0.0,0.0,88.0872483221481,0.0,0.0,0.0,0.0,0.0
0.0,62.919463087248644,0.0,0.0,0.0,0.0,75.50335570469838,0.0,0.0,0.0,0.0,0.0
0.0,62.919463087248644,0.0,0.0,0.0,0.0,50.33557046979892,0.0,0.0,0.0,0.0,0.0
0.0,62.919463087248644,0.0,0.0,0.0,0.0,25.16778523489946,0.0,0.0,0.0,0.0,0.0
0.0,62.919463087248644,0.0,0.0,0.0,0.0,12.58389261744973,0.0,0.0,0.0,0.0,0.0
0.0,62.919463087248644,0.0,0.0,0.0,0.0,-0.0,0.0,0.0,0.0,0.0,0.0
0.0,62.919463087248644,0.0,0.0,0.0,0.0,-12.58389261744973,0.0,0.0,0.0,0.0,0.0
0.0,62.919463087248644,0.0,0.0,0.0,0.0,-12.58389261744973,0.0,0.0,0.0,0.0,0.0
0.0,62.919463087248644,0.0,0.0,0.0,0.0,-12.58389261744973,0.0,0.0,0.0,0.0,0.0
0.0,62.919463087248644,0.0,0.0,0.0,0.0,-12.58389261744973,0.0,0.0,0.0,0.0,0.0
0.0,62.919463087248644,0.0,0.0,0.0,0.0,-25.16778523489946,0.0,0.0,0.0,0.0,0.0
0.0,62.919463087248644,0.0,0.0,0.0,0.0,-25.16778523489946,0.0,0.0,0.0,0.0,0.0
0.0,62.919463087248644,0.0,0.0,0.0,0.0,-25.16778523489946,0.0,0.0,0.0,0.0,0.0
0.0,62.919463087248644,0.0,0.0,0.0,0.0,-25.16778523489946,0.0,0.0,0.0,0.0,0.0
0.0,62.919463087248644,0.0,0.0,0.0,0.0,-25.16778523489946,0.0,0.0,0.0,0.0,0.0
0.0,62.919463087248644,0.0,0.0,0.0,0.0,-25.16778523489946,0.0,0.0,0.0,0.0,0.0
0.0,62.919463087248644,0.0,0.0,0.0,0.0,-25.16778523489946,0.0,0.0,0.0,0.0,0.0
0.0,62.919463087248644,0.0,0.0,0.0,0.0,-25.16778523489946,0.0,0.0,0.0,0.0,0.0
0.0,50.33557046979892,0.0,0.0,0.0,0.0,-12.58389261744973,0.0,0.0,0.0,0.0,0.0
0.0,50.33557046979892,0.0,0.0,0.0,0.0,-12.58389261744973,0.0,0.0,0.0,0.0,0.0
0.0,37.75167785234919,0.0,0.0,0.0,0.0,-12.58389261744973,0.0,0.0,0.0,0.0,0.0
0.0,37.75167785234919,0.0,0.0,0.0,0.0,-12.58389261744973,0.0,0.0,0.0,0.0,0.0
0.0,25.16778523489946,0.0,0.0,0.0,0.0,-12.58389261744973,0.0,0.0,0.0,0.0,0.0
0.0,25.16778523489946,0.0,0.0,0.0,0.0,-12.58389261744973,0.0,0.0,0.0,0.0,0.0
0.0,12.58389261744973,0.0,0.0,0.0,0.0,-12.58389261744973,0.0,0.0,0.0,0.0,0.0
0.0,-0.0,0.0,0.0,0.0,0.0,-12.58389261744973,0.0,0.0,0.0,0.0,0.0
0.0,-0.0,0.0,0.0,0.0,0.0,-12.58389261744973,0.0,0.0,0.0,0.0,0.0
0.0,-0.0,0.0,0.0,0.0,0.0,-0.0,0.0,0.0,0.0,0.0,0.0
0.0,-0.0,0.0,0.0,0.0,0.0,-0.0,0.0,0.0,0.0,0.0,0.0
0.0,-0.0,0.0,0.0,0.0,0.0,-0.0,0.0,0.0,0.0,0.0,0.0
0.0,-0.0,0.0,0.0,0.0,0.0,-0.0,0.0,0.0,0.0,0.0,0.0
0.0,-12.58389261744973,0.0,0.0,0.0,0.0,-0.0,0.0,0.0,0.0,0.0,0.0
0.0,-12.58389261744973,0.0,0.0,0.0,0.0,-0.0,0.0,0.0,0.0,0.0,0.0
0.0,-0.0,0.0,0.0,0.0,0.0,-0.0,0.0,0.0,0.0,0.0,0.0
0.0,-0.0,0.0,0.0,0.0,0.0,12.58389261744973,0.0,0.0,0.0,0.0,0.0
0.0,-0.0,0.0,0.0,0.0,0.0,12.58389261744973,0.0,0.0,0.0,0.0,0.0
0.0,-0.0,0.0,0.0,0.0,0.0,12.58389261744973,0.0,0.0,0.0,0.0,0.0
0.0,-0.0,0.0,0.0,0.0,0.0,12.58389261744973,0.0,0.0,0.0,0.0,0.0
0.0,-0.0,0.0,0.0,0.0,0.0,-0.0,0.0,0.0,0.0,0.0,0.0
0.0,-0.0,0.0,0.0,0.0,0.0,-0.0,0.0,0.0,0.0,0.0,0.0
0.0,-0.0,0.0,0.0,0.0,0.0,-0.0,0.0,0.0,0.0,0.0,0.0
0.0,-0.0,0.0,0.0,0.0,0.0,-0.0,0.0,0.0,0.0,0.0,0.0
0.0,-0.0,0.0,0.0,0.0,0.0,-12.58389261744973,0.0,0.0,0.0,0.0,0.0
0.0,-12.58389261744973,0.0,0.0,0.0,0.0,-12.58389261744973,0.0,0.0,0.0,0.0,0.0
0.0,-50.33557046979892,0.0,0.0,0.0,0.0,-12.58389261744973,0.0,0.0,0.0,0.0,0.0
0.0,-125.83892617449729,0.0,0.0,0.0,0.0,-12.58389261744973,0.0,0.0,0.0,0.0,0.0
0.0,-226.51006711409514,0.0,0.0,0.0,0.0,-12.58389261744973,0.0,0.0,0.0,0.0,0.0
0.0,-339.7651006711427,0.0,0.0,0.0,0.0,12.58389261744973,0.0,0.0,0.0,0.0,0.0
0.0,-465.60402684563996,0.0,0.0,0.0,0.0,37.75167785234919,0.0,0.0,0.0,0.0,0.0
0.0,-578.8590604026875,0.0,0.0,0.0,0.0,88.0872483221481,0.0,0.0,0.0,0.0,0.0
0.0,-679.5302013422854,0.0,0.0,0.0,0.0,188.75838926174595,0.0,0.0,0.0,0.0,0.0
0.0,-729.8657718120843,0.0,0.0,0.0,0.0,302.0134228187935,0.0,0.0,0.0,0.0,0.0
0.0,-767.6174496644335,0.0,0.0,0.0,0.0,427.8523489932908,0.0,0.0,0.0,0.0,0.0
0.0,-868.2885906040314,0.0,0.0,0.0,0.0,553.691275167788,0.0,0.0,0.0,0.0,0.0
0.0,-855.7046979865816,0.0,0.0,0.0,0.0,641.7785234899362,0.0,0.0,0.0,0.0,0.0
0.0,-843.1208053691319,0.0,0.0,0.0,0.0,631.9910514541419,0.0,0.0,0.0,0.0,0.0
0.0,-830.5369127516822,0.0,0.0,0.0,0.0,622.2035794183477,0.0,0.0,0.0,0.0,0.0
0.0,-817.9530201342324,0.0,0.0,0.0,0.0,612.4161073825535,0.0,0.0,0.0,0.0,0.0
0.0,-805.3691275167827,0.0,0.0,0.0,0.0,602.6286353467592,0.0,0.0,0.0,0.0,0.0
0.0,-792.785234899333,0.0,0.0,0.0,0.0,592.841163310965,0.0,0.0,0.0,0.0,0.0
0.0,-780.2013422818832,0.0,0.0,0.0,0.0,583.0536912751708,0.0,0.0,0.0,0.0,0.0
0.0,-767.6174496644335,0.0,0.0,0.0,0.0,573.2662192393766,0.0,0.0,0.0,0.0,0.0
0.0,-755.0335570469838,0.0,0.0,0.0,0.0,563.4787472035823,0.0,0.0,0.0,0.0,0.0
0.0,-742.449664429534,0.0,0.0,0.0,0.0,553.691275167788,0.0,0.0,0.0,0.0,0.0
0.0,-729.8657718120843,0.0,0.0,0.0,0.0,289.42953020134377,0.0,0.0,0.0,0.0,0.0
0.0,-528.5234899328887,0.0,0.0,0.0,0.0,50.33557046979892,0.0,0.0,0.0,0.0,0.0
0.0,-440.4362416107405,0.0,0.0,0.0,0.0,-50.33557046979892,0.0,0.0,0.0,0.0,0.0
0.0,-440.4362416107405,0.0,0.0,0.0,0.0,-62.919463087248644,0.0,0.0,0.0,0.0,0.0
0.0,-465.60402684563996,0.0,0.0,0.0,0.0,188.75838926174595,0.0,0.0,0.0,0.0,0.0
0.0,-427.8523489932908,0.0,0.0,0.0,0.0,528.5234899328887,0.0,0.0,0.0,0.0,0.0
0.0,-302.0134228187935,0.0,0.0,0.0,0.0,520.1342281879221,0.0,0.0,0.0,0.0,0.0
0.0,-151.00671140939676,0.0,0.0,0.0,0.0,511.7449664429556,0.0,0.0,0.0,0.0,0.0
0.0,-25.16778523489946,0.0,0.0,0.0,0.0,503.35570469798915,0.0,0.0,0.0,0.0,0.0
0.0,62.919463087248644,0.0,0.0,0.0,0.0,494.9664429530227,0.0,0.0,0.0,0.0,0.0
0.0,138.422818791947,0.0,0.0,0.0,0.0,486.5771812080562,0.0,0.0,0.0,0.0,0.0
0.0,176.1744966442962,0.0,0.0,0.0,0.0,478.1879194630897,0.0,0.0,0.0,0.0,0.0
0.0,188.75838926174595,0.0,0.0,0.0,0.0,201.34228187919567,0.0,0.0,0.0,0.0,0.0
0.0,188.75838926174595,0.0,0.0,0.0,0.0,50.33557046979892,0.0,0.0,0.0,0.0,0.0
0.0,201.34228187919567,0.0,0.0,0.0,0.0,-37.75167785234919,0.0,0.0,0.0,0.0,0.0
0.0,213.9261744966454,0.0,0.0,0.0,0.0,-88.0872483221481,0.0,0.0,0.0,0.0,0.0
0.0,226.51006711409514,0.0,0.0,0.0,0.0,-113.25503355704757,0.0,0.0,0.0,0.0,0.0
0.0,239.09395973154486,0.0,0.0,0.0,0.0,-138.422818791947,0.0,0.0,0.0,0.0,0.0
0.0,251.67785234899458,0.0,0.0,0.0,0.0,-163.59060402684648,0.0,0.0,0.0,0.0,0.0
0.0,264.2617449664443,0.0,0.0,0.0,0.0,-176.1744966442962,0.0,0.0,0.0,0.0,0.0
0.0,264.2617449664443,0.0,0.0,0.0,0.0,-188.75838926174595,0.0,0.0,0.0,0.0,0.0
0.0,276.845637583894,0.0,0.0,0.0,0.0,-188.75838926174595,0.0,0.0,0.0,0.0,0.0
0.0,289.42953020134377,0.0,0.0,0.0,0.0,-188.75838926174595,0.0,0.0,0.0,0.0,0.0
0.0,314.5973154362432,0.0,0.0,0.0,0.0,-201.34228187919567,0.0,0.0,0.0,0.0,0.0
0.0,327.18120805369296,0.0,0.0,0.0,0.0,-213.9261744966454,0.0,0.0,0.0,0.0,0.0
0.0,339.7651006711427,0.0,0.0,0.0,0.0,-213.9261744966454,0.0,0.0,0.0,0.0,0.0
0.0,364.93288590604215,0.0,0.0,0.0,0.0,-226.51006711409514,0.0,0.0,0.0,0.0,0.0
0.0,390.1006711409416,0.0,0.0,0.0,0.0,-226.51006711409514,0.0,0.0,0.0,0.0,0.0
0.0,415.2684563758411,0.0,0.0,0.0,0.0,-226.51006711409514,0.0,0.0,0.0,0.0,0.0
0.0,440.4362416107405,0.0,0.0,0.0,0.0,-239.09395973154486,0.0,0.0,0.0,0.0,0.0
0.0,465.60402684563996,0.0,0.0,0.0,0.0,-251.67785234899458,0.0,0.0,0.0,0.0,0.0
0.0,503.35570469798915,0.0,0.0,0.0,0.0,-276.845637583894,0.0,0.0,0.0,0.0,0.0
0.0,541.1073825503383,0.0,0.0,0.0,0.0,-289.42953020134377,0.0,0.0,0.0,0.0,0.0
0.0,566.2751677852378,0.0,0.0,0.0,0.0,-302.0134228187935,0.0,0.0,0.0,0.0,0.0
0.0,616.6107382550367,0.0,0.0,0.0,0.0,-327.18120805369296,0.0,0.0,0.0,0.0,0.0
0.0,666.9463087248356,0.0,0.0,0.0,0.0,-339.7651006711427,0.0,0.0,0.0,0.0,0.0
0.0,704.6979865771848,0.0,0.0,0.0,0.0,-364.93288590604215,0.0,0.0,0.0,0.0,0.0
0.0,755.0335570469838,0.0,0.0,0.0,0.0,-390.1006711409416,0.0,0.0,0.0,0.0,0.0
0.0,805.3691275167827,0.0,0.0,0.0,0.0,-415.2684563758411,0.0,0.0,0.0,0.0,0.0
0.0,855.7046979865816,0.0,0.0,0.0,0.0,-440.4362416107405,0.0,0.0,0.0,0.0,0.0
0.0,906.0402684563805,0.0,0.0,0.0,0.0,-478.1879194630897,0.0,0.0,0.0,0.0,0.0
0.0,956.3758389261794,0.0,0.0,0.0,0.0,-503.35570469798915,0.0,0.0,0.0,0.0,0.0
0.0,1006.7114093959783,0.0,0.0,0.0,0.0,-528.5234899328887,0.0,0.0,0.0,0.0,0.0
0.0,1044.4630872483276,0.0,0.0,0.0,0.0,-566.2751677852378,0.0,0.0,0.0,0.0,0.0
0.0,1069.630872483227,0.0,0.0,0.0,0.0,-604.026845637587,0.0,0.0,0.0,0.0,0.0
0.0,1094.7986577181264,0.0,0.0,0.0,0.0,-629.1946308724864,0.0,0.0,0.0,0.0,0.0
0.0,1119.966442953026,0.0,0.0,0.0,0.0,-666.9463087248356,0.0,0.0,0.0,0.0,0.0
0.0,1132.5503355704757,0.0,0.0,0.0,0.0,-704.6979865771848,0.0,0.0,0.0,0.0,0.0
0.0,1119.966442953026,0.0,0.0,0.0,0.0,-729.8657718120843,0.0,0.0,0.0,0.0,0.0
0.0,1082.2147651006767,0.0,0.0,0.0,0.0,-742.449664429534,0.0,0.0,0.0,0.0,0.0
0.0,1044.4630872483276,0.0,0.0,0.0,0.0,-755.0335570469838,0.0,0.0,0.0,0.0,0.0
0.0,981.5436241610789,0.0,0.0,0.0,0.0,-755.0335570469838,0.0,0.0,0.0,0.0,0.0
0.0,906.0402684563805,0.0,0.0,0.0,0.0,-755.0335570469838,0.0,0.0,0.0,0.0,0.0
0.0,830.5369127516822,0.0,0.0,0.0,0.0,-755.0335570469838,0.0,0.0,0.0,0.0,0.0
0.0,717.2818791946346,0.0,0.0,0.0,0.0,-729.8657718120843,0.0,0.0,0.0,0.0,0.0
0.0,616.6107382550367,0.0,0.0,0.0,0.0,-704.6979865771848,0.0,0.0,0.0,0.0,0.0
0.0,515.9395973154388,0.0,0.0,0.0,0.0,-666.9463087248356,0.0,0.0,0.0,0.0,0.0
0.0,427.8523489932908,0.0,0.0,0.0,0.0,-616.6107382550367,0.0,0.0,0.0,0.0,0.0
0.0,339.7651006711427,0.0,0.0,0.0,0.0,-541.1073825503383,0.0,0.0,0.0,0.0,0.0
0.0,276.845637583894,0.0,0.0,0.0,0.0,-478.1879194630897,0.0,0.0,0.0,0.0,0.0
0.0,213.9261744966454,0.0,0.0,0.0,0.0,-390.1006711409416,0.0,0.0,0.0,0.0,0.0
0.0,163.59060402684648,0.0,0.0,0.0,0.0,-327.18120805369296,0.0,0.0,0.0,0.0,0.0
0.0,113.25503355704757,0.0,0.0,0.0,0.0,-264.2617449664443,0.0,0.0,0.0,0.0,0.0
0.0,75.50335570469838,0.0,0.0,0.0,0.0,-201.34228187919567,0.0,0.0,0.0,0.0,0.0
0.0,50.33557046979892,0.0,0.0,0.0,0.0,-151.00671140939676,0.0,0.0,0.0,0.0,0.0
0.0,37.75167785234919,0.0,0.0,0.0,0.0,-100.67114093959783,0.0,0.0,0.0,0.0,0.0
0.0,25.16778523489946,0.0,0.0,0.0,0.0,-62.919463087248644,0.0,0.0,0.0,0.0,0.0
0.0,12.58389261744973,0.0,0.0,0.0,0.0,-37.75167785234919,0.0,0.0,0.0,0.0,0.0
0.0,12.58389261744973,0.0,0.0,0.0,0.0,-25.16778523489946,0.0,0.0,0.0,0.0,0.0
0.0,12.58389261744973,0.0,0.0,0.0,0.0,-12.58389261744973,0.0,0.0,0.0,0.0,0.0
0.0,-0.0,0.0,0.0,0.0,0.0,-12.58389261744973,0.0,0.0,0.0,0.0,0.0
0.0,-0.0,0.0,0.0,0.0,0.0,-0.0,0.0,0.0,0.0,0.0,0.0
0.0,-0.0,0.0,0.0,0.0,0.0,12.58389261744973,0.0,0.0,0.0,0.0,0.0
0.0,-0.0,0.0,0.0,0.0,0.0,12.58389261744973,0.0,0.0,0.0,0.0,0.0
0.0,-0.0,0.0,0.0,0.0,0.0,12.58389261744973,0.0,0.0,0.0,0.0,0.0
0.0,-0.0,0.0,0.0,0.0,0.0,12.58389261744973,0.0,0.0,0.0,0.0,0.0
0.0,-0.0,0.0,0.0,0.0,0.0,12.58389261744973,0.0,0.0,0.0,0.0,0.0
0.0,-12.58389261744973,0.0,0.0,0.0,0.0,12.58389261744973,0.0,0.0,0.0,0.0,0.0
0.0,-12.58389261744973,0.0,0.0,0.0,0.0,25.16778523489946,0.0,0.0,0.0,0.0,0.0
0.0,-12.58389261744973,0.0,0.0,0.0,0.0,12.58389261744973,0.0,0.0,0.0,0.0,0.0
0.0,-12.58389261744973,0.0,0.0,0.0,0.0,12.58389261744973,0.0,0.0,0.0,0.0,0.0
0.0,-12.58389261744973,0.0,0.0,0.0,0.0,12.58389261744973,0.0,0.0,0.0,0.0,0.0
0.0,-12.58389261744973,0.0,0.0,0.0,0.0,25.16778523489946,0.0,0.0,0.0,0.0,0.0
0.0,-12.58389261744973,0.0,0.0,0.0,0.0,25.16778523489946,0.0,0.0,0.0,0.0,0.0
0.0,-0.0,0.0,0.0,0.0,0.0,25.16778523489946,0.0,0.0,0.0,0.0,0.0
0.0,-12.58389261744973,0.0,0.0,0.0,0.0,25.16778523489946,0.0,0.0,0.0,0.0,0.0
0.0,-12.58389261744973,0.0,0.0,0.0,0.0,12.58389261744973,0.0,0.0,0.0,0.0,0.0
0.0,-12.58389261744973,0.0,0.0,0.0,0.0,12.58389261744973,0.0,0.0,0.0,0.0,0.0
0.0,-0.0,0.0,0.0,0.0,0.0,12.58389261744973,0.0,0.0,0.0,0.0,0.0
0.0,-0.0,0.0,0.0,0.0,0.0,12.58389261744973,0.0,0.0,0.0,0.0,0.0
0.0,-0.0,0.0,0.0,0.0,0.0,12.58389261744973,0.0,0.0,0.0,0.0,0.0
0.0,-12.58389261744973,0.0,0.0,0.0,0.0,12.58389261744973,0.0,0.0,0.0,0.0,0.0
0.0,-25.16778523489946,0.0,0.0,0.0,0.0,12.58389261744973,0.0,0.0,0.0,0.0,0.0
0.0,-25.16778523489946,0.0,0.0,0.0,0.0,12.58389261744973,0.0,0.0,0.0,0.0,0.0
0.0,-25.16778523489946,0.0,0.0,0.0,0.0,12.58389261744973,0.0,0.0,0.0,0.0,0.0
0.0,-37.75167785234919,0.0,0.0,0.0,0.0,12.58389261744973,0.0,0.0,0.0,0.0,0.0
0.0,-37.75167785234919,0.0,0.0,0.0,0.0,12.58389261744973,0.0,0.0,0.0,0.0,0.0
0.0,-25.16778523489946,0.0,0.0,0.0,0.0,12.58389261744973,0.0,0.0,0.0,0.0,0.0
0.0,-25.16778523489946,0.0,0.0,0.0,0.0,12.58389261744973,0.0,0.0,0.0,0.0,0.0
0.0,-25.16778523489946,0.0,0.0,0.0,0.0,12.58389261744973,0.0,0.0,0.0,0.0,0.0
0.0,-25.16778523489946,0.0,0.0,0.0,0.0,12.58389261744973,0.0,0.0,0.0,0.0,0.0
0.0,-25.16778523489946,0.0,0.0,0.0,0.0,12.58389261744973,0.0,0.0,0.0,0.0,0.0
0.0,-25.16778523489946,0.0,0.0,0.0,0.0,12.58389261744973,0.0,0.0,0.0,0.0,0.0
0.0,-37.75167785234919,0.0,0.0,0.0,0.0,12.58389261744973,0.0,0.0,0.0,0.0,0.0
0.0,-37.75167785234919,0.0,0.0,0.0,0.0,-0.0,0.0,0.0,0.0,0.0,0.0
0.0,-25.16778523489946,0.0,0.0,0.0,0.0,-0.0,0.0,0.0,0.0,0.0,0.0
0.0,-12.58389261744973,0.0,0.0,0.0,0.0,-0.0,0.0,0.0,0.0,0.0,0.0
0.0,-12.58389261744973,0.0,0.0,0.0,0.0,-0.0,0.0,0.0,0.0,0.0,0.0
0.0,-12.58389261744973,0.0,0.0,0.0,0.0,-0.0,0.0,0.0,0.0,0.0,0.0
0.0,-12.58389261744973,0.0,0.0,0.0,0.0,-0.0,0.0,0.0,0.0,0.0,0.0
0.0,-12.58389261744973,0.0,0.0,0.0,0.0,-0.0,0.0,0.0,0.0,0.0,0.0
